EC-Lab ASCII FILE
Nb header lines : 66                          

Cyclic Voltammetry Advanced

Run on channel : 2 (SN 69290)
User : 
CE vs. WE compliance from -10 V to 10 V
Electrode connection : standard
Potential control : Ewe
Ewe ctrl range : min = -1.00 V, max = 1.00 V
Safety Limits :
	Do not start on E overload
Acquisition started on : 11/12/2025 20:59:02.055
Loaded Setting File :  C:\Users\User\Documents\EC-Lab\Data\Yatsuzuka\20251112_2-148_alpha_reproducibility\20251112_2-148_002_alpha_reproducibility_2_K1.mps
Saved on :
	File : 20251112_2-148_006_gamma_reproducibility_2_Na2_01_CVA_C02.mpr
	Directory : C:\Users\User\Documents\EC-Lab\Data\Yatsuzuka\20251112_2-148_alpha_reproducibility\
	Host : 192.109.209.127
Device : SP-150e (SN .003883)
Address : 192.109.209.128
EC-Lab for windows v11.52 (software)
Internet server v11.52 (firmware)
Command interpretor v11.50 (firmware)
Electrode material : 
Initial state : 
Electrolyte : 
Comments : 
Electrode surface area : 0.001 cm2
Characteristic mass : 0.001 g
Equivalent Weight : 0.000 g/eq.
Density : 0.000 g/cm3
Volume (V) : 0.001 cm3
Cycle Definition : Charge/Discharge alternance
Ei (V)              0.350               
vs.                 Ref                 
ti (h:m:s)          0:00:10.0000        
dti (s)             0.0000              
dE/dt               10.000              
dE/dt unit          mV/s                
E1 (V)              0.450               
vs.                 Ref                 
t1 (h:m:s)          0:00:0.0000         
dt1 (s)             0.1000              
Step percent        50                  
N                   10                  
E range min (V)     -1.000              
E range max (V)     1.000               
I Range             Auto                
I Range min         Unset               
I Range max         Unset               
I Range init        Unset               
Bandwidth           5                   
E2 (V)              0.350               
vs.                 Ref                 
t2 (h:m:s)          0:00:0.0000         
dt2 (s)             0.1000              
nc cycles           9                   
nr                  1                   
Reverse Scan        0                   
Ef (V)              0.000               
vs.                 Eoc                 
tf (h:m:s)          0:00:0.0000         
dtf (s)             0.1000              

mode	ox/red	error	control changes	Ns changes	counter inc.	time/s	control/V	Ewe/V	<I>/mA	cycle number	(Q-Qo)/C	I Range	Ns	step time/s	P/W	
2	1	0	1	0	0	0.000000000000000E+000	3.4998915E-001	3.5237601E-001	2.329623603820801E+001	1.000000000000000E+000	0.0000000E+000	9	0	0.000000000000000E+000	8.2090348E-003
2	0	0	1	0	0	2.749999930529157E-002	3.5026368E-001	3.4922928E-001	-3.026724455243773E+000	1.000000000000000E+000	-1.5608870E-004	9	0	0.000000000000000E+000	-1.0570207E-003
2	1	0	1	0	0	7.749999804218533E-002	3.5076308E-001	3.4982806E-001	3.892642894228857E+000	1.000000000000000E+000	-1.1180635E-004	9	0	0.000000000000000E+000	1.3617558E-003
2	0	0	1	0	0	1.274999967790791E-001	3.5126251E-001	3.5035375E-001	-2.911586560129003E+000	1.000000000000000E+000	-1.2847177E-004	9	0	0.000000000000000E+000	-1.0200853E-003
2	1	0	1	0	0	1.773999955184991E-001	3.5176262E-001	3.5124865E-001	3.611334177577355E+000	1.000000000000000E+000	-7.4424679E-005	9	0	0.000000000000000E+000	1.2684762E-003
2	0	0	1	0	0	2.272999942579190E-001	3.5226133E-001	3.5259843E-001	-2.968293938659837E+000	1.000000000000000E+000	-9.1376838E-005	9	0	0.000000000000000E+000	-1.0466158E-003
2	1	0	1	0	0	2.772999929948128E-001	3.5276073E-001	3.5231760E-001	3.629515674379165E+000	1.000000000000000E+000	-6.3345869E-005	9	0	0.000000000000000E+000	1.2787422E-003
2	0	0	1	0	0	3.271999917342328E-001	3.5325989E-001	3.5299820E-001	-2.767095851471378E+000	1.000000000000000E+000	-7.7830678E-005	9	0	0.000000000000000E+000	-9.7677985E-004
2	1	0	1	0	0	3.770999904736527E-001	3.5375953E-001	3.5388297E-001	3.717353560066451E+000	1.000000000000000E+000	-5.3091586E-005	9	0	0.000000000000000E+000	1.3155082E-003
2	0	0	1	0	0	4.270999892105465E-001	3.5425895E-001	3.5416597E-001	-2.458427958298472E+000	1.000000000000000E+000	-3.6568832E-005	9	0	4.999999873689376E-002	-8.7069155E-004
2	1	0	1	0	0	4.770999879474402E-001	3.5475835E-001	3.5479864E-001	3.504800884358993E+000	1.000000000000000E+000	-6.2537792E-006	9	0	9.999999747378752E-002	1.2434986E-003
2	0	0	1	0	0	5.268999866893864E-001	3.5525781E-001	3.5494173E-001	-2.842039990631967E+000	1.000000000000000E+000	-1.2771081E-005	9	0	0.000000000000000E+000	-1.0087586E-003
2	1	0	1	0	0	5.768999854262802E-001	3.5575721E-001	3.5484740E-001	3.752247855211159E+000	1.000000000000000E+000	3.2896451E-006	9	0	0.000000000000000E+000	1.3314754E-003
2	0	0	1	0	0	6.268999841631739E-001	3.5625654E-001	3.5641807E-001	-2.518748029130661E+000	1.000000000000000E+000	2.5983672E-005	9	0	4.999999873689376E-002	-8.9772732E-004
2	1	0	1	0	0	6.767999829025939E-001	3.5675621E-001	3.5660088E-001	3.687240927933722E+000	1.000000000000000E+000	5.1217263E-005	9	0	9.989999747631373E-002	1.3148733E-003
2	0	0	1	0	0	7.266999816420139E-001	3.5725543E-001	3.5723731E-001	-2.512215883277658E+000	1.000000000000000E+000	6.8489346E-005	9	0	1.497999962157337E-001	-8.9745724E-004
2	1	0	1	0	0	7.766999803789076E-001	3.5775483E-001	3.5718647E-001	3.578879771808097E+000	1.000000000000000E+000	7.5835065E-005	9	0	1.997999949526275E-001	1.2783274E-003
2	0	0	1	0	0	8.265999791183276E-001	3.5825378E-001	3.5826585E-001	-2.140728918668600E+000	1.000000000000000E+000	1.0938781E-004	9	0	2.496999936920474E-001	-7.6695008E-004
2	1	0	1	0	0	8.764999778577476E-001	3.5875362E-001	3.5792831E-001	3.540864188727948E+000	1.000000000000000E+000	1.1814154E-004	9	0	2.995999924314674E-001	1.2673755E-003
2	0	0	1	0	0	9.264999765946413E-001	3.5925302E-001	3.5869351E-001	-2.360676451825739E+000	1.000000000000000E+000	1.5680249E-004	9	0	3.495999911683612E-001	-8.4675930E-004
2	1	0	1	0	0	9.764999753315351E-001	3.5975245E-001	3.5906446E-001	3.328835268527385E+000	1.000000000000000E+000	1.5199276E-004	9	0	0.000000000000000E+000	1.1952665E-003
2	0	0	1	0	0	1.026399974070955E+000	3.6025277E-001	3.5979947E-001	-2.297836860776371E+000	1.000000000000000E+000	1.8726572E-004	9	0	0.000000000000000E+000	-8.2676049E-004
2	1	0	1	0	0	1.076299972810375E+000	3.6075127E-001	3.6020270E-001	3.443312454482811E+000	1.000000000000000E+000	1.8637911E-004	9	0	0.000000000000000E+000	1.2402905E-003
2	0	0	1	0	0	1.126299971547269E+000	3.6125067E-001	3.6069977E-001	-2.228720196941198E+000	1.000000000000000E+000	2.3827930E-004	9	0	0.000000000000000E+000	-8.0389885E-004
2	1	0	1	0	0	1.176199970286689E+000	3.6175007E-001	3.6137468E-001	3.270356505313771E+000	1.000000000000000E+000	2.2668508E-004	9	0	0.000000000000000E+000	1.1818240E-003
2	0	0	1	0	0	1.226099969026109E+000	3.6224946E-001	3.6227998E-001	-2.222941082456856E+000	1.000000000000000E+000	2.7136737E-004	9	0	0.000000000000000E+000	-8.0532703E-004
2	1	0	1	0	0	1.276099967763003E+000	3.6274889E-001	3.6272722E-001	3.188855962332823E+000	1.000000000000000E+000	2.4744307E-004	9	0	0.000000000000000E+000	1.1566848E-003
2	0	0	1	0	0	1.325999966502422E+000	3.6324742E-001	3.6345717E-001	-1.956161200915560E+000	1.000000000000000E+000	3.1407704E-004	9	0	0.000000000000000E+000	-7.1098079E-004
2	1	0	1	0	0	1.375899965241842E+000	3.6374775E-001	3.6356130E-001	3.106921665118509E+000	1.000000000000000E+000	2.9091226E-004	9	0	0.000000000000000E+000	1.1295564E-003
2	0	0	1	0	0	1.425899963978736E+000	3.6424714E-001	3.6469105E-001	-2.090339658340961E+000	1.000000000000000E+000	3.5356841E-004	9	0	0.000000000000000E+000	-7.6232816E-004
2	1	0	1	0	0	1.475899962715630E+000	3.6474654E-001	3.6496240E-001	3.121217860511834E+000	1.000000000000000E+000	3.1995983E-004	9	0	0.000000000000000E+000	1.1391272E-003
2	0	0	1	0	0	1.525799961455050E+000	3.6524659E-001	3.6448193E-001	-1.720364350596803E+000	1.000000000000000E+000	3.9493336E-004	9	0	0.000000000000000E+000	-6.2704174E-004
2	1	0	1	0	0	1.575699960194470E+000	3.6574537E-001	3.6522523E-001	2.946189692342919E+000	1.000000000000000E+000	3.6286897E-004	9	0	0.000000000000000E+000	1.0760227E-003
2	0	0	1	0	0	1.625699958931364E+000	3.6624479E-001	3.6618328E-001	-1.923105164426559E+000	1.000000000000000E+000	4.4027396E-004	9	0	0.000000000000000E+000	-7.0420897E-004
2	1	0	1	0	0	1.675599957670784E+000	3.6674395E-001	3.6563697E-001	2.653058537826320E+000	1.000000000000000E+000	3.9481249E-004	9	0	0.000000000000000E+000	9.7005628E-004
2	0	0	1	0	0	1.725499956410204E+000	3.6724356E-001	3.6664963E-001	-1.869624998258477E+000	1.000000000000000E+000	4.7467175E-004	9	0	0.000000000000000E+000	-6.8549730E-004
2	1	0	1	0	0	1.775499955147097E+000	3.6774299E-001	3.6682558E-001	2.769147658693583E+000	1.000000000000000E+000	4.2412255E-004	9	0	0.000000000000000E+000	1.0157942E-003
2	0	0	1	0	0	1.825499953883991E+000	3.6824238E-001	3.6748794E-001	-1.779343420828646E+000	1.000000000000000E+000	5.1402027E-004	9	0	0.000000000000000E+000	-6.5388723E-004
2	1	0	1	0	0	1.875299952625937E+000	3.6874181E-001	3.6959380E-001	2.707015705274838E+000	1.000000000000000E+000	4.6292305E-004	9	0	0.000000000000000E+000	1.0004962E-003
2	0	0	1	0	0	1.925299951362831E+000	3.6924121E-001	3.6940944E-001	-1.685881218346616E+000	1.000000000000000E+000	5.5495591E-004	9	0	0.000000000000000E+000	-6.2278041E-004
2	1	0	1	0	0	1.975299950099725E+000	3.6974061E-001	3.6932462E-001	2.728319153981498E+000	1.000000000000000E+000	5.0051825E-004	9	0	0.000000000000000E+000	1.0076355E-003
2	0	0	1	0	0	2.025199948839145E+000	3.7024024E-001	3.7033594E-001	-1.526045700739843E+000	1.000000000000000E+000	6.0879264E-004	9	0	0.000000000000000E+000	-5.6514959E-004
2	1	0	1	0	0	2.075099947578565E+000	3.7073940E-001	3.6983120E-001	2.618991098973996E+000	1.000000000000000E+000	5.5436924E-004	9	0	0.000000000000000E+000	9.6858462E-004
2	0	0	1	0	0	2.125099946315459E+000	3.7123883E-001	3.7127364E-001	-1.457403349649667E+000	1.000000000000000E+000	6.6148315E-004	9	0	0.000000000000000E+000	-5.4109545E-004
2	1	0	1	0	0	2.174999945054878E+000	3.7173778E-001	3.7135869E-001	2.361293863175916E+000	1.000000000000000E+000	5.9499976E-004	9	0	0.000000000000000E+000	8.7688700E-004
2	0	0	1	0	0	2.224899943794298E+000	3.7223768E-001	3.7283054E-001	-1.149743058570269E+000	1.000000000000000E+000	7.2005758E-004	9	0	0.000000000000000E+000	-4.2865932E-004
2	1	0	1	0	0	2.274899942531192E+000	3.7273708E-001	3.7263656E-001	2.701755358257159E+000	1.000000000000000E+000	6.6670752E-004	9	0	0.000000000000000E+000	1.0067729E-003
2	0	0	1	0	0	2.324899941268086E+000	3.7323648E-001	3.7385118E-001	-1.924704559183392E+000	1.000000000000000E+000	7.7540800E-004	9	0	0.000000000000000E+000	-7.1955309E-004
2	1	0	1	0	0	2.374799940007506E+000	3.7373677E-001	3.7343284E-001	2.115284462970013E+000	1.000000000000000E+000	6.7687623E-004	9	0	0.000000000000000E+000	7.8991667E-004
2	0	0	1	0	0	2.424699938746926E+000	3.7423530E-001	3.7540486E-001	-1.193892578284020E+000	1.000000000000000E+000	7.9867750E-004	9	0	0.000000000000000E+000	-4.4819308E-004
2	1	0	1	0	0	2.474699937483820E+000	3.7473473E-001	3.7474352E-001	2.199190671029299E+000	1.000000000000000E+000	7.2180253E-004	9	0	0.000000000000000E+000	8.2413247E-004
2	0	0	1	0	0	2.524599936223240E+000	3.7523413E-001	3.7559587E-001	-1.186574599055453E+000	1.000000000000000E+000	8.5806818E-004	9	0	0.000000000000000E+000	-4.4567251E-004
2	1	0	1	0	0	2.574499934962660E+000	3.7573349E-001	3.7563270E-001	2.219159398389866E+000	1.000000000000000E+000	7.8007526E-004	9	0	0.000000000000000E+000	8.3358883E-004
2	0	0	1	0	0	2.624499933699553E+000	3.7623292E-001	3.7565073E-001	-9.264152467179390E-001	1.000000000000000E+000	9.2031626E-004	9	0	0.000000000000000E+000	-3.4800856E-004
2	1	0	1	0	0	2.674399932438973E+000	3.7673143E-001	3.7557164E-001	2.206452316568452E+000	1.000000000000000E+000	8.4205996E-004	9	0	0.000000000000000E+000	8.2868093E-004
2	0	0	1	0	0	2.724299931178393E+000	3.7723175E-001	3.7653783E-001	-1.148867244062919E+000	1.000000000000000E+000	9.8852464E-004	9	0	0.000000000000000E+000	-4.3259197E-004
2	1	0	1	0	0	2.774299929915287E+000	3.7773114E-001	3.7683457E-001	1.893929525129977E+000	1.000000000000000E+000	8.9409493E-004	9	0	0.000000000000000E+000	7.1369810E-004
2	0	0	1	0	0	2.824299928652181E+000	3.7823054E-001	3.7805125E-001	-1.162578971489648E+000	1.000000000000000E+000	1.0351194E-003	9	0	0.000000000000000E+000	-4.3951444E-004
2	1	0	1	0	0	2.874199927391601E+000	3.7873042E-001	3.7763047E-001	1.644692854665934E+000	1.000000000000000E+000	9.3295181E-004	9	0	0.000000000000000E+000	6.2108616E-004
2	0	0	1	0	0	2.924099926131021E+000	3.7922934E-001	3.7908670E-001	-1.077508546016093E+000	1.000000000000000E+000	1.0828284E-003	9	0	0.000000000000000E+000	-4.0846918E-004
2	1	0	1	0	0	2.974099924867915E+000	3.7972876E-001	3.7968233E-001	1.287539628248883E+000	1.000000000000000E+000	9.6632028E-004	9	0	0.000000000000000E+000	4.8885605E-004
2	0	0	1	0	0	3.023999923607334E+000	3.8022774E-001	3.8035765E-001	-6.070547730982760E-001	1.000000000000000E+000	1.1214835E-003	9	0	0.000000000000000E+000	-2.3089793E-004
2	1	0	1	0	0	3.073899922346754E+000	3.8072762E-001	3.8002783E-001	1.540690111797161E+000	1.000000000000000E+000	1.0098035E-003	9	0	0.000000000000000E+000	5.8550510E-004
2	0	0	1	0	0	3.123899921083648E+000	3.8122702E-001	3.8122538E-001	-8.044683120893037E-001	1.000000000000000E+000	1.1689904E-003	9	0	0.000000000000000E+000	-3.0668374E-004
2	1	0	1	0	0	3.173899919820542E+000	3.8172641E-001	3.8185814E-001	1.690554574806811E+000	1.000000000000000E+000	1.0642897E-003	9	0	0.000000000000000E+000	6.4555201E-004
2	0	0	1	0	0	3.223699918562488E+000	3.8222581E-001	3.8240498E-001	-6.379085379765108E-001	1.000000000000000E+000	1.2373643E-003	9	0	0.000000000000000E+000	-2.4393940E-004
2	1	0	1	0	0	3.273699917299382E+000	3.8272524E-001	3.8279712E-001	1.411380007359107E+000	1.000000000000000E+000	1.1246288E-003	9	0	0.000000000000000E+000	5.4027222E-004
2	0	0	1	0	0	3.323699916036276E+000	3.8322467E-001	3.8317448E-001	-8.243899030457733E-001	1.000000000000000E+000	1.2870252E-003	9	0	0.000000000000000E+000	-3.1588518E-004
2	1	0	1	0	0	3.373599914775696E+000	3.8372430E-001	3.8291216E-001	1.237487569921026E+000	1.000000000000000E+000	1.1580304E-003	9	0	0.000000000000000E+000	4.7384904E-004
2	0	0	1	0	0	3.423499913515116E+000	3.8422343E-001	3.8294548E-001	-3.941058330777940E-001	1.000000000000000E+000	1.3417855E-003	9	0	0.000000000000000E+000	-1.5092104E-004
2	1	0	1	0	0	3.473499912252009E+000	3.8472286E-001	3.8270703E-001	1.214906470427168E+000	1.000000000000000E+000	1.2223010E-003	9	0	0.000000000000000E+000	4.6495325E-004
2	0	0	1	0	0	3.523399910991429E+000	3.8522160E-001	3.8472214E-001	-4.345504780795251E-001	1.000000000000000E+000	1.4056241E-003	9	0	0.000000000000000E+000	-1.6718119E-004
2	1	0	1	0	0	3.573299909730849E+000	3.8572168E-001	3.8568410E-001	1.026304503713783E+000	1.000000000000000E+000	1.2695333E-003	9	0	0.000000000000000E+000	3.9582932E-004
2	0	0	1	0	0	3.623299908467743E+000	3.8622108E-001	3.8579860E-001	-3.988401436287887E-001	1.000000000000000E+000	1.4539832E-003	9	0	0.000000000000000E+000	-1.5387197E-004
2	1	0	1	0	0	3.673299907204637E+000	3.8672048E-001	3.8671106E-001	1.145653401235979E+000	1.000000000000000E+000	1.3244784E-003	9	0	0.000000000000000E+000	4.4303684E-004
2	0	0	1	0	0	3.723199905944057E+000	3.8722056E-001	3.8644126E-001	-2.181541045045938E-001	1.000000000000000E+000	1.5208505E-003	9	0	0.000000000000000E+000	-8.4303749E-005
2	1	0	1	0	0	3.773099904683477E+000	3.8771927E-001	3.8759390E-001	9.042339558186434E-001	1.000000000000000E+000	1.3823234E-003	9	0	0.000000000000000E+000	3.5047557E-004
2	0	0	1	0	0	3.823099903420371E+000	3.8821867E-001	3.8893357E-001	-2.692366822978445E-001	1.000000000000000E+000	1.5712136E-003	9	0	0.000000000000000E+000	-1.0471518E-004
2	1	0	1	0	0	3.872999902159791E+000	3.8871813E-001	3.8753843E-001	9.853124212084978E-001	1.000000000000000E+000	1.4257230E-003	9	0	0.000000000000000E+000	3.8184642E-004
2	1	0	1	0	0	3.922899900899210E+000	3.8921756E-001	3.8825950E-001	6.879892433282286E-002	1.000000000000000E+000	1.6362934E-003	9	0	0.000000000000000E+000	2.6711836E-005
2	1	0	1	0	0	3.972899899636104E+000	3.8971695E-001	3.8869509E-001	8.123078651834064E-001	1.000000000000000E+000	1.4968815E-003	9	0	0.000000000000000E+000	3.1574009E-004
2	0	0	1	0	0	4.022799898375524E+000	3.9021543E-001	3.8887215E-001	-3.006298591233669E-002	1.000000000000000E+000	1.7010961E-003	9	0	0.000000000000000E+000	-1.1690658E-005
2	0	0	1	0	0	4.072699897114944E+000	3.9071575E-001	3.9040348E-001	5.031268202343675E-001	1.000000000000000E+000	1.5419882E-003	9	0	0.000000000000000E+000	1.9642246E-004
2	1	0	1	0	0	4.122699895851838E+000	3.9121515E-001	3.9046499E-001	2.040284845599720E-001	1.000000000000000E+000	1.7578602E-003	9	0	0.000000000000000E+000	7.9665981E-005
2	0	0	1	0	0	4.172699894588732E+000	3.9171457E-001	3.9036536E-001	7.013204174052925E-001	1.000000000000000E+000	1.6125966E-003	9	0	0.000000000000000E+000	2.7377121E-004
2	1	0	1	0	0	4.222599893328152E+000	3.9221442E-001	3.9177778E-001	4.319568457861287E-001	1.000000000000000E+000	1.8314219E-003	9	0	0.000000000000000E+000	1.6923109E-004
2	0	0	1	0	0	4.272499892067572E+000	3.9271337E-001	3.9209390E-001	4.293548326380474E-001	1.000000000000000E+000	1.6714077E-003	9	0	0.000000000000000E+000	1.6834741E-004
2	1	0	1	0	0	4.322499890804465E+000	3.9321277E-001	3.9214268E-001	2.492229687679597E-001	1.000000000000000E+000	1.8859529E-003	9	0	0.000000000000000E+000	9.7730961E-005
2	0	0	1	0	0	4.372399889543885E+000	3.9371172E-001	3.9304480E-001	2.468098834543545E-001	1.000000000000000E+000	1.7238366E-003	9	0	0.000000000000000E+000	9.7007338E-005
2	1	0	1	0	0	4.422299888283305E+000	3.9421159E-001	3.9356071E-001	5.870428241177290E-001	1.000000000000000E+000	1.9579078E-003	9	0	0.000000000000000E+000	2.3103699E-004
2	0	0	1	0	0	4.472299887020199E+000	3.9471102E-001	3.9377478E-001	3.514482743862075E-001	1.000000000000000E+000	1.7996811E-003	9	0	0.000000000000000E+000	1.3839146E-004
2	1	0	1	0	0	4.522299885757093E+000	3.9521042E-001	3.9483035E-001	3.856052129712981E-001	1.000000000000000E+000	2.0191527E-003	9	0	0.000000000000000E+000	1.5224864E-004
2	0	0	1	0	0	4.572099884499039E+000	3.9570978E-001	3.9450714E-001	1.743400296507382E-001	1.000000000000000E+000	1.8493725E-003	9	0	0.000000000000000E+000	6.8778383E-005
2	1	0	1	0	0	4.622099883235933E+000	3.9620921E-001	3.9590296E-001	8.026385163698944E-001	1.000000000000000E+000	2.0889801E-003	9	0	0.000000000000000E+000	3.1776697E-004
2	0	0	1	0	0	4.672099881972827E+000	3.9670861E-001	3.9588171E-001	3.354298425163402E-001	1.000000000000000E+000	1.9295869E-003	9	0	0.000000000000000E+000	1.3279053E-004
2	1	0	1	0	0	4.721999880712247E+000	3.9720827E-001	3.9708042E-001	7.632576680493841E-001	1.000000000000000E+000	2.1676521E-003	9	0	0.000000000000000E+000	3.0307469E-004
2	0	0	1	0	0	4.771899879451666E+000	3.9770749E-001	3.9712489E-001	9.118103203557035E-002	1.000000000000000E+000	1.9906254E-003	9	0	0.000000000000000E+000	3.6210258E-005
2	1	0	1	0	0	4.821899878188560E+000	3.9820683E-001	3.9688009E-001	9.255400900750639E-001	1.000000000000000E+000	2.2309332E-003	9	0	0.000000000000000E+000	3.6732844E-004
2	0	0	1	0	0	4.871799876927980E+000	3.9870560E-001	3.9766815E-001	2.019030040834612E-002	1.000000000000000E+000	2.0573209E-003	9	0	0.000000000000000E+000	8.0290392E-006
2	1	0	1	0	0	4.921699875667400E+000	3.9920568E-001	3.9873162E-001	1.213015079192333E+000	1.000000000000000E+000	2.3122572E-003	9	0	0.000000000000000E+000	4.8366748E-004
2	0	0	1	0	0	4.971699874404294E+000	3.9970508E-001	3.9944166E-001	3.696734200921439E-003	1.000000000000000E+000	2.1367557E-003	9	0	0.000000000000000E+000	1.4766297E-006
2	1	0	1	0	0	5.021699873141188E+000	4.0020451E-001	4.0018463E-001	1.032130325905928E+000	1.000000000000000E+000	2.3768051E-003	9	0	0.000000000000000E+000	4.1304270E-004
2	0	0	1	0	0	5.071599871880608E+000	4.0070459E-001	3.9867899E-001	-3.000106876431677E-002	1.000000000000000E+000	2.1934176E-003	9	0	0.000000000000000E+000	-1.1960796E-005
2	1	0	1	0	0	5.121499870620028E+000	4.0120330E-001	4.0040079E-001	1.401479184627455E+000	1.000000000000000E+000	2.4538508E-003	9	0	0.000000000000000E+000	5.6115334E-004
2	0	0	1	0	0	5.171499869356921E+000	4.0170270E-001	4.0032557E-001	-2.306615127535794E-002	1.000000000000000E+000	2.2794784E-003	9	0	0.000000000000000E+000	-9.2339696E-006
2	1	0	1	0	0	5.221399868096341E+000	4.0220210E-001	4.0090781E-001	1.233507421612012E+000	1.000000000000000E+000	2.5330433E-003	9	0	0.000000000000000E+000	4.9452274E-004
2	0	0	1	0	0	5.271299866835761E+000	4.0270153E-001	4.0111512E-001	-2.598757717200630E-001	1.000000000000000E+000	2.3410521E-003	9	0	0.000000000000000E+000	-1.0424010E-004
2	1	0	1	0	0	5.321299865572655E+000	4.0320095E-001	4.0239224E-001	1.598367871313833E+000	1.000000000000000E+000	2.6032848E-003	9	0	0.000000000000000E+000	6.4317085E-004
2	0	0	1	0	0	5.371199864312075E+000	4.0369946E-001	4.0278286E-001	-1.557323015262742E-001	1.000000000000000E+000	2.4187197E-003	9	0	0.000000000000000E+000	-6.2726300E-005
2	1	0	1	0	0	5.421099863051495E+000	4.0419972E-001	4.0367997E-001	1.842692909249358E+000	1.000000000000000E+000	2.6910354E-003	9	0	0.000000000000000E+000	7.4385823E-004
2	0	0	1	0	0	5.471099861788389E+000	4.0469915E-001	4.0339592E-001	-3.380894351768199E-001	1.000000000000000E+000	2.5002824E-003	9	0	0.000000000000000E+000	-1.3638390E-004
2	1	0	1	0	0	5.521099860525283E+000	4.0519854E-001	4.0537778E-001	1.744572155285553E+000	1.000000000000000E+000	2.7615756E-003	9	0	0.000000000000000E+000	7.0721080E-004
2	0	0	1	0	0	5.570999859264703E+000	4.0569842E-001	4.0471971E-001	-4.029400252647424E-001	1.000000000000000E+000	2.5697181E-003	9	0	0.000000000000000E+000	-1.6307777E-004
2	1	0	1	0	0	5.620899858004123E+000	4.0619743E-001	4.0517324E-001	2.053662293199158E+000	1.000000000000000E+000	2.8486701E-003	9	0	0.000000000000000E+000	8.3208899E-004
2	0	0	1	0	0	5.670899856741016E+000	4.0669677E-001	4.0570951E-001	-3.685416695504493E-001	1.000000000000000E+000	2.6607397E-003	9	0	0.000000000000000E+000	-1.4952086E-004
2	1	0	1	0	0	5.720799855480436E+000	4.0719575E-001	4.0635112E-001	2.131659043408925E+000	1.000000000000000E+000	2.9281459E-003	9	0	0.000000000000000E+000	8.6620206E-004
2	0	0	1	0	0	5.770699854219856E+000	4.0769562E-001	4.0688166E-001	-5.280125645767670E-001	1.000000000000000E+000	2.7273195E-003	9	0	0.000000000000000E+000	-2.1483863E-004
2	1	0	1	0	0	5.820699852956750E+000	4.0819502E-001	4.0761825E-001	2.282062736254325E+000	1.000000000000000E+000	3.0068886E-003	9	0	0.000000000000000E+000	9.3021040E-004
2	0	0	1	0	0	5.870699851693644E+000	4.0869445E-001	4.0777194E-001	-3.889706305403955E-001	1.000000000000000E+000	2.8202920E-003	9	0	0.000000000000000E+000	-1.5861131E-004
2	1	0	1	0	0	5.920599850433064E+000	4.0919471E-001	4.0892047E-001	2.147665258228085E+000	1.000000000000000E+000	3.0979172E-003	9	0	0.000000000000000E+000	8.7822427E-004
2	0	0	1	0	0	5.970499849172484E+000	4.0969324E-001	4.0856037E-001	-6.268725937259849E-001	1.000000000000000E+000	2.8945659E-003	9	0	0.000000000000000E+000	-2.5611531E-004
2	1	0	1	0	0	6.020499847909377E+000	4.1019264E-001	4.0986401E-001	2.470725523820795E+000	1.000000000000000E+000	3.1754812E-003	9	0	0.000000000000000E+000	1.0126615E-003
2	0	0	1	0	0	6.070399846648797E+000	4.1069204E-001	4.1011482E-001	-3.363429910513347E-001	1.000000000000000E+000	2.9792252E-003	9	0	0.000000000000000E+000	-1.3793925E-004
2	1	0	1	0	0	6.120299845388217E+000	4.1119146E-001	4.1050625E-001	2.677512693376368E+000	1.000000000000000E+000	3.2714186E-003	9	0	0.000000000000000E+000	1.0991357E-003
2	0	0	1	0	0	6.170299844125111E+000	4.1169089E-001	4.1061011E-001	-6.817048382788116E-001	1.000000000000000E+000	3.0727154E-003	9	0	0.000000000000000E+000	-2.7991491E-004
2	1	0	1	0	0	6.220199842864531E+000	4.1218942E-001	4.1221905E-001	2.550239846839766E+000	1.000000000000000E+000	3.3547541E-003	9	0	0.000000000000000E+000	1.0512575E-003
2	0	0	1	0	0	6.270099841603951E+000	4.1268966E-001	4.1168585E-001	-8.210689022345363E-001	1.000000000000000E+000	3.1512948E-003	9	0	0.000000000000000E+000	-3.3802245E-004
2	1	0	1	0	0	6.320099840340845E+000	4.1318908E-001	4.1300112E-001	2.896582730078407E+000	1.000000000000000E+000	3.4433834E-003	9	0	0.000000000000000E+000	1.1962919E-003
2	0	0	1	0	0	6.370099839077739E+000	4.1368848E-001	4.1303179E-001	-7.252236168184290E-001	1.000000000000000E+000	3.2491996E-003	9	0	0.000000000000000E+000	-2.9954041E-004
2	1	0	1	0	0	6.419999837817159E+000	4.1418836E-001	4.1376555E-001	2.987389667707049E+000	1.000000000000000E+000	3.5354008E-003	9	0	0.000000000000000E+000	1.2360789E-003
2	0	0	1	0	0	6.469899836556579E+000	4.1468737E-001	4.1522780E-001	-9.694884292341017E-001	1.000000000000000E+000	3.3271788E-003	9	0	0.000000000000000E+000	-4.0255854E-004
2	1	0	1	0	0	6.519899835293472E+000	4.1518670E-001	4.1503066E-001	3.067322098402528E+000	1.000000000000000E+000	3.6212795E-003	9	0	0.000000000000000E+000	1.2730327E-003
2	0	0	1	0	0	6.569799834032892E+000	4.1568571E-001	4.1497982E-001	-9.411535998811633E-001	1.000000000000000E+000	3.4222135E-003	9	0	0.000000000000000E+000	-3.9055976E-004
2	1	0	1	0	0	6.619699832772312E+000	4.1618556E-001	4.1701889E-001	3.228286132432331E+000	1.000000000000000E+000	3.7224642E-003	9	0	0.000000000000000E+000	1.3462564E-003
2	0	0	1	0	0	6.669699831509206E+000	4.1668496E-001	4.1622931E-001	-1.029378421352722E+000	1.000000000000000E+000	3.5175383E-003	9	0	0.000000000000000E+000	-4.2845745E-004
2	1	0	1	0	0	6.719699830246100E+000	4.1718438E-001	4.1714925E-001	3.198924902988466E+000	1.000000000000000E+000	3.8105224E-003	9	0	0.000000000000000E+000	1.3344291E-003
2	0	0	1	0	0	6.769499828988046E+000	4.1768378E-001	4.1685358E-001	-1.168071505632886E+000	1.000000000000000E+000	3.6117206E-003	9	0	0.000000000000000E+000	-4.8691480E-004
2	1	0	1	0	0	6.819499827724940E+000	4.1818318E-001	4.1724253E-001	3.479299170671446E+000	1.000000000000000E+000	3.9142505E-003	9	0	0.000000000000000E+000	1.4517116E-003
2	0	0	1	0	0	6.869499826461833E+000	4.1868258E-001	4.1759118E-001	-1.109667691613623E+000	1.000000000000000E+000	3.7144970E-003	9	0	0.000000000000000E+000	-4.6338743E-004
2	1	0	1	0	0	6.919399825201253E+000	4.1918218E-001	4.1900301E-001	3.475629216149699E+000	1.000000000000000E+000	4.0100706E-003	9	0	0.000000000000000E+000	1.4562991E-003
2	0	0	1	0	0	6.969299823940673E+000	4.1968140E-001	4.1946918E-001	-1.273335777619053E+000	1.000000000000000E+000	3.8027701E-003	9	0	0.000000000000000E+000	-5.3412514E-004
2	1	0	1	0	0	7.019299822677567E+000	4.2018083E-001	4.2062232E-001	3.629301180730096E+000	1.000000000000000E+000	4.1074776E-003	9	0	0.000000000000000E+000	1.5265651E-003
2	0	0	1	0	0	7.069199821416987E+000	4.2067960E-001	4.1944838E-001	-1.278192995690135E+000	1.000000000000000E+000	3.9068274E-003	9	0	0.000000000000000E+000	-5.3613598E-004
2	1	0	1	0	0	7.119099820156407E+000	4.2117959E-001	4.2149985E-001	3.726913853687918E+000	1.000000000000000E+000	4.2109676E-003	9	0	0.000000000000000E+000	1.5708936E-003
2	0	0	1	0	0	7.169099818893301E+000	4.2167902E-001	4.2088729E-001	-1.380449678550928E+000	1.000000000000000E+000	4.0037730E-003	9	0	0.000000000000000E+000	-5.8101374E-004
2	1	0	1	0	0	7.219099817630195E+000	4.2217842E-001	4.2215165E-001	3.832521638720493E+000	1.000000000000000E+000	4.3090559E-003	9	0	0.000000000000000E+000	1.6179053E-003
2	0	0	1	0	0	7.268999816369615E+000	4.2267853E-001	4.2189369E-001	-1.173622728520024E+000	1.000000000000000E+000	4.1088150E-003	9	0	0.000000000000000E+000	-4.9514399E-004
2	1	0	1	0	0	7.318899815109035E+000	4.2317730E-001	4.2299634E-001	3.997650162897227E+000	1.000000000000000E+000	4.4219550E-003	9	0	0.000000000000000E+000	1.6909913E-003
2	0	0	1	0	0	7.368899813845928E+000	4.2367664E-001	4.2340541E-001	-1.495618519863672E+000	1.000000000000000E+000	4.2195385E-003	9	0	0.000000000000000E+000	-6.3325296E-004
2	1	0	1	0	0	7.418799812585348E+000	4.2417607E-001	4.2448083E-001	3.854365310452195E+000	1.000000000000000E+000	4.5242133E-003	9	0	0.000000000000000E+000	1.6361042E-003
2	0	0	1	0	0	7.468699811324768E+000	4.2467549E-001	4.2539898E-001	-1.576507643423078E+000	1.000000000000000E+000	4.3234378E-003	9	0	0.000000000000000E+000	-6.7064475E-004
2	1	0	1	0	0	7.518699810061662E+000	4.2517489E-001	4.2486903E-001	4.168681757857499E+000	1.000000000000000E+000	4.6341657E-003	9	0	0.000000000000000E+000	1.7711438E-003
2	0	0	1	0	0	7.568599808801082E+000	4.2567340E-001	4.2556375E-001	-1.557541328114546E+000	1.000000000000000E+000	4.4341590E-003	9	0	0.000000000000000E+000	-6.6283316E-004
2	1	0	1	0	0	7.618499807540502E+000	4.2617372E-001	4.2607933E-001	4.197520721937763E+000	1.000000000000000E+000	4.7389683E-003	9	0	0.000000000000000E+000	1.7884768E-003
2	0	0	1	0	0	7.668499806277396E+000	4.2667311E-001	4.2530358E-001	-1.730137656852296E+000	1.000000000000000E+000	4.5369351E-003	9	0	0.000000000000000E+000	-7.3583372E-004
2	1	0	1	0	0	7.718499805014289E+000	4.2717251E-001	4.2686149E-001	4.326047841117575E+000	1.000000000000000E+000	4.8463484E-003	9	0	0.000000000000000E+000	1.8466233E-003
2	0	0	1	0	0	7.768399803753709E+000	4.2767236E-001	4.2679361E-001	-1.722423475359793E+000	1.000000000000000E+000	4.6517132E-003	9	0	0.000000000000000E+000	-7.3511933E-004
2	1	0	1	0	0	7.818299802493129E+000	4.2817134E-001	4.2785555E-001	4.393316720814751E+000	1.000000000000000E+000	4.9617905E-003	9	0	0.000000000000000E+000	1.8797050E-003
2	0	0	1	0	0	7.868299801230023E+000	4.2867076E-001	4.2882219E-001	-1.877126092208216E+000	1.000000000000000E+000	4.7617513E-003	9	0	0.000000000000000E+000	-8.0495334E-004
2	1	0	1	0	0	7.918199799969443E+000	4.2916971E-001	4.2865333E-001	4.543896277245238E+000	1.000000000000000E+000	5.0700088E-003	9	0	0.000000000000000E+000	1.9477563E-003
2	0	0	1	0	0	7.968099798708863E+000	4.2966953E-001	4.2937750E-001	-1.872530329054702E+000	1.000000000000000E+000	4.8802914E-003	9	0	0.000000000000000E+000	-8.0402236E-004
2	1	0	1	0	0	8.018099797445757E+000	4.3016896E-001	4.3024337E-001	4.582840429411966E+000	1.000000000000000E+000	5.1896526E-003	9	0	0.000000000000000E+000	1.9717368E-003
2	0	0	1	0	0	8.068099796182651E+000	4.3066835E-001	4.2944112E-001	-1.910207110902604E+000	1.000000000000000E+000	4.9980017E-003	9	0	0.000000000000000E+000	-8.2032150E-004
2	1	0	1	0	0	8.117899794924597E+000	4.3116775E-001	4.3121529E-001	4.606430531019195E+000	1.000000000000000E+000	5.2968101E-003	9	0	0.000000000000000E+000	1.9863632E-003
2	0	0	1	0	0	8.167899793661491E+000	4.3166724E-001	4.3192431E-001	-2.061270989765625E+000	1.000000000000000E+000	5.1091672E-003	9	0	0.000000000000000E+000	-8.9031307E-004
2	1	0	1	0	0	8.217899792398384E+000	4.3216658E-001	4.3126297E-001	4.703789653193514E+000	1.000000000000000E+000	5.4166988E-003	9	0	0.000000000000000E+000	2.0285703E-003
2	0	0	1	0	0	8.267799791137804E+000	4.3266624E-001	4.3297920E-001	-2.091909567532980E+000	1.000000000000000E+000	5.2306792E-003	9	0	0.000000000000000E+000	-9.0575335E-004
2	1	0	1	0	0	8.317699789877224E+000	4.3316543E-001	4.3381184E-001	4.664620506302690E+000	1.000000000000000E+000	5.5314456E-003	9	0	0.000000000000000E+000	2.0235677E-003
2	0	0	1	0	0	8.367699788614118E+000	4.3366483E-001	4.3385103E-001	-2.230995681838751E+000	1.000000000000000E+000	5.3433310E-003	9	0	0.000000000000000E+000	-9.6791977E-004
2	1	0	1	0	0	8.417599787353538E+000	4.3416357E-001	4.3427923E-001	4.916281270972021E+000	1.000000000000000E+000	5.6482567E-003	9	0	0.000000000000000E+000	2.1350388E-003
2	0	0	1	0	0	8.467499786092958E+000	4.3466365E-001	4.3329468E-001	-2.212487384892945E+000	1.000000000000000E+000	5.4737320E-003	9	0	0.000000000000000E+000	-9.5865905E-004
2	1	0	1	0	0	8.517499784829852E+000	4.3516305E-001	4.3430570E-001	4.799666454952515E+000	1.000000000000000E+000	5.7723471E-003	9	0	0.000000000000000E+000	2.0845225E-003
2	0	0	1	0	0	8.567499783566745E+000	4.3566245E-001	4.3485576E-001	-2.295805504248751E+000	1.000000000000000E+000	5.5905222E-003	9	0	0.000000000000000E+000	-9.9834427E-004
2	1	0	1	0	0	8.617399782306165E+000	4.3616250E-001	4.3537250E-001	4.639164420530443E+000	1.000000000000000E+000	5.8894879E-003	9	0	0.000000000000000E+000	2.0197646E-003
2	0	0	1	0	0	8.667299781045585E+000	4.3666127E-001	4.3664789E-001	-2.360707064325734E+000	1.000000000000000E+000	5.7180943E-003	9	0	0.000000000000000E+000	-1.0307977E-003
2	1	0	1	0	0	8.717299779782479E+000	4.3716070E-001	4.3755302E-001	4.939168532761379E+000	1.000000000000000E+000	6.0178121E-003	9	0	0.000000000000000E+000	2.1611480E-003
2	0	0	1	0	0	8.767199778521899E+000	4.3766010E-001	4.3825451E-001	-2.327683441415648E+000	1.000000000000000E+000	5.8440873E-003	9	0	0.000000000000000E+000	-1.0201178E-003
2	1	0	1	0	0	8.817099777261319E+000	4.3815947E-001	4.3872520E-001	4.892252815086394E+000	1.000000000000000E+000	6.1343592E-003	9	0	0.000000000000000E+000	2.1463546E-003
2	0	0	1	0	0	8.867099775998213E+000	4.3865889E-001	4.3805006E-001	-2.503146007225212E+000	1.000000000000000E+000	5.9684422E-003	9	0	0.000000000000000E+000	-1.0965032E-003
2	1	0	1	0	0	8.916999774737633E+000	4.3915740E-001	4.3916687E-001	4.905665416630661E+000	1.000000000000000E+000	6.2645758E-003	9	0	0.000000000000000E+000	2.1544057E-003
2	0	0	1	0	0	8.966899773477053E+000	4.3965769E-001	4.3815082E-001	-2.595687068314945E+000	1.000000000000000E+000	6.1071324E-003	9	0	0.000000000000000E+000	-1.1373024E-003
2	1	0	1	0	0	9.016899772213947E+000	4.4015718E-001	4.4009665E-001	4.896249720151811E+000	1.000000000000000E+000	6.3887336E-003	9	0	0.000000000000000E+000	2.1548232E-003
2	0	0	1	0	0	9.066899770950840E+000	4.4065651E-001	4.3991005E-001	-2.626846982373156E+000	1.000000000000000E+000	6.2250495E-003	9	0	0.000000000000000E+000	-1.1555764E-003
2	1	0	1	0	0	9.116799769690260E+000	4.4115639E-001	4.4137201E-001	4.943459458974065E+000	1.000000000000000E+000	6.5147295E-003	9	0	0.000000000000000E+000	2.1819046E-003
2	0	0	1	0	0	9.166699768429680E+000	4.4165537E-001	4.4152001E-001	-2.631934642044889E+000	1.000000000000000E+000	6.3660163E-003	9	0	0.000000000000000E+000	-1.1620518E-003
2	1	0	1	0	0	9.216699767166574E+000	4.4215477E-001	4.4144261E-001	5.029081181663400E+000	1.000000000000000E+000	6.6493792E-003	9	0	0.000000000000000E+000	2.2200507E-003
2	0	0	1	0	0	9.266599765905994E+000	4.4265372E-001	4.4238085E-001	-2.731595217581756E+000	1.000000000000000E+000	6.4924341E-003	9	0	0.000000000000000E+000	-1.2084054E-003
2	1	0	1	0	0	9.316499764645414E+000	4.4315359E-001	4.4235614E-001	5.107941041246008E+000	1.000000000000000E+000	6.7705875E-003	9	0	0.000000000000000E+000	2.2595292E-003
2	0	0	1	0	0	9.366499763382308E+000	4.4365299E-001	4.4207639E-001	-2.672902046734286E+000	1.000000000000000E+000	6.6326535E-003	9	0	0.000000000000000E+000	-1.1816269E-003
2	1	0	1	0	0	9.416499762119201E+000	4.4415238E-001	4.4320828E-001	5.131290895495399E+000	1.000000000000000E+000	6.9145910E-003	9	0	0.000000000000000E+000	2.2742306E-003
2	0	0	1	0	0	9.466399760858621E+000	4.4465268E-001	4.4404802E-001	-2.639586888692318E+000	1.000000000000000E+000	6.7717386E-003	9	0	0.000000000000000E+000	-1.1721033E-003
2	1	0	1	0	0	9.516299759598041E+000	4.4515121E-001	4.4514033E-001	5.061992168498456E+000	1.000000000000000E+000	7.0407409E-003	9	0	0.000000000000000E+000	2.2532968E-003
2	0	0	1	0	0	9.566299758334935E+000	4.4565064E-001	4.4565007E-001	-2.766103773949311E+000	1.000000000000000E+000	6.9058798E-003	9	0	0.000000000000000E+000	-1.2327144E-003
2	1	0	1	0	0	9.616199757074355E+000	4.4615006E-001	4.4599771E-001	5.017630264071528E+000	1.000000000000000E+000	7.1803872E-003	9	0	0.000000000000000E+000	2.2378517E-003
2	0	0	1	0	0	9.666099755813775E+000	4.4664940E-001	4.4579315E-001	-2.771576097262212E+000	1.000000000000000E+000	7.0563299E-003	9	0	0.000000000000000E+000	-1.2355497E-003
2	1	0	1	0	0	9.716099754550669E+000	4.4714883E-001	4.4684976E-001	5.107509939278970E+000	1.000000000000000E+000	7.3145325E-003	9	0	0.000000000000000E+000	2.2822896E-003
2	0	0	1	0	0	9.765999753290089E+000	4.4764757E-001	4.4699511E-001	-2.894682536375036E+000	1.000000000000000E+000	7.1837632E-003	9	0	0.000000000000000E+000	-1.2939089E-003
2	1	0	1	0	0	9.815899752029509E+000	4.4814762E-001	4.4895461E-001	5.213824901693712E+000	1.000000000000000E+000	7.4431635E-003	9	0	0.000000000000000E+000	2.3407708E-003
2	0	0	1	0	0	9.865899750766403E+000	4.4864711E-001	4.4832194E-001	-2.759985389736826E+000	1.000000000000000E+000	7.3356591E-003	9	0	0.000000000000000E+000	-1.2373620E-003
2	1	0	1	0	0	9.915899749503296E+000	4.4914645E-001	4.4818944E-001	5.183541433174753E+000	1.000000000000000E+000	7.5934785E-003	9	0	0.000000000000000E+000	2.3232086E-003
2	0	0	1	0	0	9.965799748242716E+000	4.4964656E-001	4.4912329E-001	-2.567901384595775E+000	1.000000000000000E+000	7.4749417E-003	9	0	0.000000000000000E+000	-1.1533044E-003
2	1	0	1	0	0	9.995699747487379E+000	4.4994557E-001	4.5158517E-001	3.726848481012382E+001	1.000000000000000E+000	7.6947538E-003	9	0	0.000000000000000E+000	1.6829895E-002
2	0	0	0	0	0	9.998999747404014E+000	4.5002058E-001	4.5148033E-001	-4.222160816192627E+000	1.000000000000000E+000	7.7680917E-003	9	0	3.299999916634988E-003	-1.9062225E-003
2	0	0	1	0	0	1.002639974671183E+001	4.4974667E-001	4.4923061E-001	-2.480855887549541E+000	1.000000000000000E+000	7.5482535E-003	9	0	0.000000000000000E+000	-1.1144764E-003
2	1	0	1	0	0	1.007629974545125E+001	4.4924635E-001	4.4943580E-001	5.175701782035276E+000	1.000000000000000E+000	7.8357849E-003	9	0	0.000000000000000E+000	2.3261458E-003
2	0	0	1	0	0	1.012629974418815E+001	4.4874689E-001	4.4914964E-001	-2.693761832256287E+000	1.000000000000000E+000	7.6988940E-003	9	0	0.000000000000000E+000	-1.2099021E-003
2	1	0	1	0	0	1.017629974292504E+001	4.4824749E-001	4.4861656E-001	5.063453130460047E+000	1.000000000000000E+000	7.9700584E-003	9	0	0.000000000000000E+000	2.2715488E-003
2	0	0	1	0	0	1.022619974166446E+001	4.4774768E-001	4.4699609E-001	-2.704470668771446E+000	1.000000000000000E+000	7.8299260E-003	9	0	0.000000000000000E+000	-1.2088878E-003
2	1	0	1	0	0	1.027609974040388E+001	4.4724873E-001	4.4743276E-001	5.189105881225039E+000	1.000000000000000E+000	8.1062196E-003	9	0	0.000000000000000E+000	2.3217760E-003
2	0	0	1	0	0	1.032609973914077E+001	4.4674927E-001	4.4581115E-001	-2.760292751489652E+000	1.000000000000000E+000	7.9796128E-003	9	0	0.000000000000000E+000	-1.2305693E-003
2	1	0	1	0	0	1.037599973788019E+001	4.4625014E-001	4.4576254E-001	4.802133661516770E+000	1.000000000000000E+000	8.2414001E-003	9	0	0.000000000000000E+000	2.1406114E-003
2	0	0	1	0	0	1.042589973661961E+001	4.4575053E-001	4.4403493E-001	-2.943038070331468E+000	1.000000000000000E+000	8.1066033E-003	9	0	0.000000000000000E+000	-1.3068117E-003
2	1	0	1	0	0	1.047589973535651E+001	4.4525105E-001	4.4413346E-001	5.129431746845940E+000	1.000000000000000E+000	8.3644949E-003	9	0	0.000000000000000E+000	2.2781524E-003
2	0	0	1	0	0	1.052589973409340E+001	4.4475165E-001	4.4444615E-001	-2.824794560167032E+000	1.000000000000000E+000	8.2461471E-003	9	0	0.000000000000000E+000	-1.2554690E-003
2	1	0	1	0	0	1.057569973283535E+001	4.4425225E-001	4.4380283E-001	5.130763877850654E+000	1.000000000000000E+000	8.4970109E-003	9	0	0.000000000000000E+000	2.2770476E-003
2	0	0	1	0	0	1.062569973157224E+001	4.4375291E-001	4.4240704E-001	-3.005157399760684E+000	1.000000000000000E+000	8.3752107E-003	9	0	0.000000000000000E+000	-1.3295028E-003
2	1	0	1	0	0	1.067569973030913E+001	4.4325346E-001	4.4271541E-001	5.061885464936424E+000	1.000000000000000E+000	8.6189033E-003	9	0	0.000000000000000E+000	2.2409747E-003
2	0	0	1	0	0	1.072559972904855E+001	4.4275379E-001	4.4127420E-001	-2.984195426969844E+000	1.000000000000000E+000	8.5058622E-003	9	0	0.000000000000000E+000	-1.3168484E-003
2	1	0	1	0	0	1.077549972778797E+001	4.4225463E-001	4.4172660E-001	5.097088218843943E+000	1.000000000000000E+000	8.7497672E-003	9	0	0.000000000000000E+000	2.2515194E-003
2	0	0	1	0	0	1.082549972652487E+001	4.4175521E-001	4.4074944E-001	-3.040497770262530E+000	1.000000000000000E+000	8.6404989E-003	9	0	0.000000000000000E+000	-1.3400976E-003
2	1	0	1	0	0	1.087539972526429E+001	4.4125649E-001	4.4076306E-001	5.083663538501504E+000	1.000000000000000E+000	8.8694217E-003	9	0	0.000000000000000E+000	2.2406911E-003
2	0	0	1	0	0	1.092529972400371E+001	4.4075644E-001	4.3989101E-001	-3.017547015465126E+000	1.000000000000000E+000	8.7648453E-003	9	0	0.000000000000000E+000	-1.3273918E-003
2	1	0	1	0	0	1.097529972274060E+001	4.4025701E-001	4.3998107E-001	5.051924316486854E+000	1.000000000000000E+000	8.9910980E-003	9	0	0.000000000000000E+000	2.2227510E-003
2	0	0	1	0	0	1.102529972147750E+001	4.3975756E-001	4.3948719E-001	-3.009030979212227E+000	1.000000000000000E+000	8.8955835E-003	9	0	0.000000000000000E+000	-1.3224306E-003
2	1	0	1	0	0	1.107519972021692E+001	4.3925753E-001	4.3808040E-001	4.723526124997946E+000	1.000000000000000E+000	9.1130640E-003	9	0	0.000000000000000E+000	2.0692842E-003
2	0	0	1	0	0	1.112509971895634E+001	4.3875879E-001	4.3678784E-001	-3.036669866699313E+000	1.000000000000000E+000	9.0116328E-003	9	0	0.000000000000000E+000	-1.3263805E-003
2	1	0	1	0	0	1.117509971769323E+001	4.3825939E-001	4.3639567E-001	5.054783186906704E+000	1.000000000000000E+000	9.2223575E-003	9	0	0.000000000000000E+000	2.2058855E-003
2	0	0	1	0	0	1.122499971643265E+001	4.3776020E-001	4.3624103E-001	-2.649338677894129E+000	1.000000000000000E+000	9.1392873E-003	9	0	0.000000000000000E+000	-1.1557502E-003
2	1	0	1	0	0	1.127489971517207E+001	4.3726060E-001	4.3540266E-001	4.990388704886669E+000	1.000000000000000E+000	9.3416460E-003	9	0	0.000000000000000E+000	2.1728284E-003
2	0	0	1	0	0	1.132489971390896E+001	4.3676111E-001	4.3562204E-001	-3.031166525764643E+000	1.000000000000000E+000	9.2560416E-003	9	0	0.000000000000000E+000	-1.3204429E-003
2	1	0	1	0	0	1.137479971264838E+001	4.3626261E-001	4.3558714E-001	4.942776347268236E+000	1.000000000000000E+000	9.4492538E-003	9	0	0.000000000000000E+000	2.1530099E-003
2	0	0	1	0	0	1.142469971138780E+001	4.3576232E-001	4.3566653E-001	-2.817661759286171E+000	1.000000000000000E+000	9.3798842E-003	9	0	0.000000000000000E+000	-1.2275609E-003
2	1	0	1	0	0	1.147469971012470E+001	4.3526298E-001	4.3522033E-001	5.023040187459614E+000	1.000000000000000E+000	9.5681725E-003	9	0	0.000000000000000E+000	2.1861291E-003
2	0	0	1	0	0	1.152469970886159E+001	4.3476352E-001	4.3473604E-001	-2.900841387933610E+000	1.000000000000000E+000	9.4993589E-003	9	0	0.000000000000000E+000	-1.2611003E-003
2	1	0	1	0	0	1.157459970760101E+001	4.3426365E-001	4.3324617E-001	4.773187527276001E+000	1.000000000000000E+000	9.6759582E-003	9	0	0.000000000000000E+000	2.0679652E-003
2	0	0	1	0	0	1.162449970634043E+001	4.3376470E-001	4.3289295E-001	-2.800706496579295E+000	1.000000000000000E+000	9.6124336E-003	9	0	0.000000000000000E+000	-1.2124061E-003
2	1	0	1	0	0	1.167449970507732E+001	4.3326527E-001	4.3239698E-001	5.005838295831765E+000	1.000000000000000E+000	9.7838286E-003	9	0	0.000000000000000E+000	2.1645094E-003
2	0	0	1	0	0	1.172439970381674E+001	4.3276638E-001	4.3227169E-001	-2.616594389392858E+000	1.000000000000000E+000	9.7342040E-003	9	0	0.000000000000000E+000	-1.1310796E-003
2	1	0	1	0	0	1.177429970255616E+001	4.3226650E-001	4.3234611E-001	4.877756932507324E+000	1.000000000000000E+000	9.8882942E-003	9	0	0.000000000000000E+000	2.1088792E-003
2	0	0	1	0	0	1.182429970129306E+001	4.3176708E-001	4.3131697E-001	-2.774650271388111E+000	1.000000000000000E+000	9.8374896E-003	9	0	0.000000000000000E+000	-1.1967537E-003
2	1	0	1	0	0	1.187429970002995E+001	4.3126762E-001	4.3120679E-001	4.937569960015892E+000	1.000000000000000E+000	9.9908747E-003	9	0	0.000000000000000E+000	2.1291138E-003
2	0	0	1	0	0	1.192419969876937E+001	4.3076736E-001	4.3002495E-001	-2.514867238678363E+000	1.000000000000000E+000	9.9548586E-003	9	0	0.000000000000000E+000	-1.0814556E-003
2	1	0	1	0	0	1.197409969750879E+001	4.3026885E-001	4.2900023E-001	4.869962804199410E+000	1.000000000000000E+000	1.0098960E-002	9	0	0.000000000000000E+000	2.0892152E-003
2	0	0	1	0	0	1.202409969624568E+001	4.2976946E-001	4.2895043E-001	-2.623449399419513E+000	1.000000000000000E+000	1.0062269E-002	9	0	0.000000000000000E+000	-1.1253298E-003
2	1	0	1	0	0	1.207399969498510E+001	4.2926979E-001	4.2815518E-001	4.907518477974335E+000	1.000000000000000E+000	1.0194963E-002	9	0	0.000000000000000E+000	2.1011794E-003
2	0	0	1	0	0	1.212389969372452E+001	4.2877066E-001	4.2715400E-001	-2.431541876579441E+000	1.000000000000000E+000	1.0175582E-002	9	0	0.000000000000000E+000	-1.0386428E-003
2	1	0	1	0	0	1.217389969246142E+001	4.2827117E-001	4.2706394E-001	4.833407506994561E+000	1.000000000000000E+000	1.0301729E-002	9	0	0.000000000000000E+000	2.0641740E-003
2	0	0	1	0	0	1.222379969120084E+001	4.2777249E-001	4.2744061E-001	-2.446006567170933E+000	1.000000000000000E+000	1.0288357E-002	9	0	0.000000000000000E+000	-1.0455225E-003
2	1	0	1	0	0	1.227369968994026E+001	4.2727238E-001	4.2737338E-001	4.650247958979129E+000	1.000000000000000E+000	1.0392108E-002	9	0	0.000000000000000E+000	1.9873921E-003
2	0	0	1	0	0	1.232369968867715E+001	4.2677304E-001	4.2774537E-001	-2.371698441424833E+000	1.000000000000000E+000	1.0386736E-002	9	0	0.000000000000000E+000	-1.0144830E-003
2	1	0	1	0	0	1.237369968741405E+001	4.2627358E-001	4.2662409E-001	4.690785292266000E+000	1.000000000000000E+000	1.0493848E-002	9	0	0.000000000000000E+000	2.0012020E-003
2	0	0	1	0	0	1.242359968615347E+001	4.2577347E-001	4.2451701E-001	-1.992933355615254E+000	1.000000000000000E+000	1.0498781E-002	9	0	4.989999873941997E-002	-8.4603409E-004
2	1	0	1	0	0	1.247349968489289E+001	4.2527476E-001	4.2501530E-001	4.478709099085421E+000	1.000000000000000E+000	1.0587517E-002	9	0	9.979999747883994E-002	1.9035198E-003
2	0	0	1	0	0	1.252349968362978E+001	4.2477533E-001	4.2395335E-001	-2.287273353136737E+000	1.000000000000000E+000	1.0590814E-002	9	0	1.497999962157337E-001	-9.6969720E-004
2	1	0	1	0	0	1.257339968236920E+001	4.2427620E-001	4.2368734E-001	4.261884690697213E+000	1.000000000000000E+000	1.0675013E-002	9	0	1.996999949551537E-001	1.8057065E-003
2	0	0	1	0	0	1.262329968110862E+001	4.2377657E-001	4.2301330E-001	-2.042763455046543E+000	1.000000000000000E+000	1.0700341E-002	9	0	2.495999936945736E-001	-8.6411613E-004
2	1	0	1	0	0	1.267329967984551E+001	4.2327714E-001	4.2375624E-001	4.358759510344299E+000	1.000000000000000E+000	1.0773400E-002	9	0	2.995999924314674E-001	1.8470515E-003
2	0	0	1	0	0	1.272319967858493E+001	4.2277861E-001	4.2356756E-001	-2.046529846506083E+000	1.000000000000000E+000	1.0797756E-002	9	0	3.494999911708874E-001	-8.6684368E-004
2	1	0	1	0	0	1.277309967732435E+001	4.2227831E-001	4.2149454E-001	4.214568237967555E+000	1.000000000000000E+000	1.0850239E-002	9	0	3.993999899103073E-001	1.7764175E-003
2	0	0	1	0	0	1.282309967606125E+001	4.2177892E-001	4.2089149E-001	-1.898464002219107E+000	1.000000000000000E+000	1.0894452E-002	9	0	4.493999886472011E-001	-7.9904735E-004
2	1	0	1	0	0	1.287309967479814E+001	4.2127952E-001	4.2073250E-001	4.223376359628517E+000	1.000000000000000E+000	1.0952144E-002	9	0	4.993999873840949E-001	1.7769117E-003
2	0	0	1	0	0	1.292299967353756E+001	4.2077962E-001	4.2012927E-001	-1.659631276905623E+000	1.000000000000000E+000	1.0998558E-002	9	0	5.492999861235148E-001	-6.9725967E-004
2	1	0	1	0	0	1.297289967227698E+001	4.2028067E-001	4.1992068E-001	3.940558292583574E+000	1.000000000000000E+000	1.1031848E-002	9	0	5.991999848629348E-001	1.6547219E-003
2	0	0	1	0	0	1.302289967101387E+001	4.1978124E-001	4.1900712E-001	-1.816912688926831E+000	1.000000000000000E+000	1.1085032E-002	9	0	6.491999835998286E-001	-7.6129934E-004
2	1	0	1	0	0	1.307279966975329E+001	4.1928235E-001	4.1835919E-001	3.762332877324315E+000	1.000000000000000E+000	1.1118696E-002	9	0	6.990999823392485E-001	1.5740065E-003
2	0	0	1	0	0	1.312269966849271E+001	4.1878244E-001	4.1916823E-001	-1.601917169808280E+000	1.000000000000000E+000	1.1190710E-002	9	0	7.489999810786685E-001	-6.7147281E-004
2	1	0	1	0	0	1.317269966722961E+001	4.1828310E-001	4.1832882E-001	3.735538541838693E+000	1.000000000000000E+000	1.1206048E-002	9	0	7.989999798155623E-001	1.5626835E-003
2	0	0	1	0	0	1.322269966596650E+001	4.1778365E-001	4.1847405E-001	-1.729737571184224E+000	1.000000000000000E+000	1.1269818E-002	9	0	8.489999785524560E-001	-7.2385027E-004
2	1	0	1	0	0	1.327259966470592E+001	4.1728330E-001	4.1643834E-001	3.727715609046896E+000	1.000000000000000E+000	1.1280567E-002	9	0	8.988999772918760E-001	1.5523637E-003
2	0	0	1	0	0	1.332249966344534E+001	4.1678482E-001	4.1617101E-001	-1.401033497375032E+000	1.000000000000000E+000	1.1369047E-002	9	0	9.487999760312960E-001	-5.8306952E-004
2	1	0	1	0	0	1.337249966218224E+001	4.1628540E-001	4.1575772E-001	3.558788711753998E+000	1.000000000000000E+000	1.1371669E-002	9	0	9.987999747681897E-001	1.4795939E-003
2	0	0	1	0	0	1.342239966092166E+001	4.1578582E-001	4.1604826E-001	-1.475850765195418E+000	1.000000000000000E+000	1.1460079E-002	9	0	1.048699973507610E+000	-6.1402516E-004
2	1	0	1	0	0	1.347229965966108E+001	4.1528663E-001	4.1512182E-001	3.239860215120856E+000	1.000000000000000E+000	1.1438922E-002	9	0	0.000000000000000E+000	1.3449367E-003
2	0	0	1	0	0	1.352229965839797E+001	4.1478720E-001	4.1500947E-001	-1.279777205733694E+000	1.000000000000000E+000	1.1545192E-002	9	0	0.000000000000000E+000	-5.3111964E-004
2	1	0	1	0	0	1.357219965713739E+001	4.1428846E-001	4.1405538E-001	3.230887267236653E+000	1.000000000000000E+000	1.1527187E-002	9	0	0.000000000000000E+000	1.3377663E-003
2	0	0	1	0	0	1.362209965587681E+001	4.1378835E-001	4.1337097E-001	-1.162225465555702E+000	1.000000000000000E+000	1.1643304E-002	9	0	0.000000000000000E+000	-4.8043026E-004
2	1	0	1	0	0	1.367209965461370E+001	4.1328898E-001	4.1292796E-001	2.933414655391104E+000	1.000000000000000E+000	1.1602232E-002	9	0	0.000000000000000E+000	1.2112890E-003
2	0	0	1	0	0	1.372209965335060E+001	4.1278958E-001	4.1236734E-001	-1.197720165460036E+000	1.000000000000000E+000	1.1717908E-002	9	0	0.000000000000000E+000	-4.9390068E-004
2	1	0	1	0	0	1.377199965209002E+001	4.1228950E-001	4.1177869E-001	2.645437793917125E+000	1.000000000000000E+000	1.1677834E-002	9	0	0.000000000000000E+000	1.0893350E-003
2	0	0	1	0	0	1.382189965082944E+001	4.1179079E-001	4.1132337E-001	-9.751143549087127E-001	1.000000000000000E+000	1.1812373E-002	9	0	0.000000000000000E+000	-4.0108731E-004
2	1	0	1	0	0	1.387189964956633E+001	4.1129130E-001	4.1079241E-001	2.602511839446191E+000	1.000000000000000E+000	1.1757660E-002	9	0	0.000000000000000E+000	1.0690921E-003
2	0	0	1	0	0	1.392179964830575E+001	4.1079217E-001	4.1077554E-001	-9.168902771112712E-001	1.000000000000000E+000	1.1889385E-002	9	0	0.000000000000000E+000	-3.7663610E-004
2	1	0	1	0	0	1.397169964704517E+001	4.1029251E-001	4.1053912E-001	2.294990493623494E+000	1.000000000000000E+000	1.1817878E-002	9	0	0.000000000000000E+000	9.4218337E-004
2	0	0	1	0	0	1.402169964578206E+001	4.0979317E-001	4.1001877E-001	-8.130447806943599E-001	1.000000000000000E+000	1.1971168E-002	9	0	0.000000000000000E+000	-3.3336363E-004
2	1	0	1	0	0	1.407169964451896E+001	4.0929371E-001	4.0968701E-001	2.323967454082126E+000	1.000000000000000E+000	1.1904486E-002	9	0	0.000000000000000E+000	9.5209928E-004
2	0	0	1	0	0	1.412149964326090E+001	4.0879422E-001	4.0808773E-001	-8.205028720655676E-001	1.000000000000000E+000	1.2054780E-002	9	0	0.000000000000000E+000	-3.3483715E-004
2	1	0	1	0	0	1.417149964199780E+001	4.0829489E-001	4.0728438E-001	1.930484164596123E+000	1.000000000000000E+000	1.1962062E-002	9	0	0.000000000000000E+000	7.8625605E-004
2	0	0	1	0	0	1.422149964073469E+001	4.0779546E-001	4.0693888E-001	-6.292855037007739E-001	1.000000000000000E+000	1.2128626E-002	9	0	0.000000000000000E+000	-2.5608073E-004
2	1	0	1	0	0	1.427139963947411E+001	4.0729591E-001	4.0677354E-001	1.800286605530790E+000	1.000000000000000E+000	1.2040479E-002	9	0	0.000000000000000E+000	7.3230895E-004
2	0	0	1	0	0	1.432129963821353E+001	4.0679669E-001	4.0639839E-001	-4.782841090419083E-001	1.000000000000000E+000	1.2216942E-002	9	0	0.000000000000000E+000	-1.9437389E-004
2	1	0	1	0	0	1.437129963695043E+001	4.0629727E-001	4.0568194E-001	1.538000002431365E+000	1.000000000000000E+000	1.2108438E-002	9	0	0.000000000000000E+000	6.2393880E-004
2	0	0	1	0	0	1.442119963568985E+001	4.0579849E-001	4.0559986E-001	-4.121869981630226E-001	1.000000000000000E+000	1.2289290E-002	9	0	0.000000000000000E+000	-1.6718300E-004
2	1	0	1	0	0	1.447109963442927E+001	4.0529841E-001	4.0468043E-001	1.349689593349640E+000	1.000000000000000E+000	1.2173064E-002	9	0	0.000000000000000E+000	5.4619298E-004
2	0	0	1	0	0	1.452109963316616E+001	4.0479904E-001	4.0496552E-001	-2.009372534096199E-001	1.000000000000000E+000	1.2369338E-002	9	0	0.000000000000000E+000	-8.1372658E-005
2	1	0	1	0	0	1.457109963190305E+001	4.0429965E-001	4.0455323E-001	1.255150163807077E+000	1.000000000000000E+000	1.2248938E-002	9	0	0.000000000000000E+000	5.0777505E-004
2	0	0	1	0	0	1.462099963064247E+001	4.0379953E-001	4.0331182E-001	-2.192000689072744E-001	1.000000000000000E+000	1.2438231E-002	9	0	0.000000000000000E+000	-8.8405977E-005
2	1	0	1	0	0	1.467089962938189E+001	4.0330085E-001	4.0273240E-001	9.423411142998219E-001	1.000000000000000E+000	1.2301114E-002	9	0	0.000000000000000E+000	3.7951130E-004
2	0	0	1	0	0	1.472089962811879E+001	4.0280136E-001	4.0267628E-001	5.305787049012323E-002	1.000000000000000E+000	1.2509958E-002	9	0	0.000000000000000E+000	2.1365146E-005
2	1	0	1	0	0	1.477079962685821E+001	4.0230224E-001	4.0124193E-001	7.428281510353241E-001	1.000000000000000E+000	1.2372860E-002	9	0	0.000000000000000E+000	2.9805381E-004
2	1	0	1	0	0	1.482069962559763E+001	4.0180257E-001	4.0167582E-001	6.441781145170844E-002	1.000000000000000E+000	1.2582914E-002	9	0	0.000000000000000E+000	2.5875077E-005
2	0	0	1	0	0	1.487069962433452E+001	4.0130323E-001	4.0140662E-001	5.636622158153113E-001	1.000000000000000E+000	1.2427686E-002	9	0	0.000000000000000E+000	2.2625775E-004
2	1	0	1	0	0	1.492059962307394E+001	4.0080470E-001	4.0067780E-001	3.257505349159180E-001	1.000000000000000E+000	1.2651523E-002	9	0	0.000000000000000E+000	1.3052100E-004
2	0	0	1	0	0	1.497049962181336E+001	4.0030429E-001	3.9844757E-001	4.362877213579566E-001	1.000000000000000E+000	1.2496439E-002	9	0	0.000000000000000E+000	1.7383779E-004
2	1	0	1	0	0	1.502049962055025E+001	3.9980495E-001	3.9775443E-001	4.888144717933955E-001	1.000000000000000E+000	1.2724330E-002	9	0	0.000000000000000E+000	1.9442812E-004
2	0	0	1	0	0	1.507049961928715E+001	3.9930552E-001	3.9758906E-001	2.900975134475132E-001	1.000000000000000E+000	1.2557602E-002	9	0	0.000000000000000E+000	1.1533960E-004
2	1	0	1	0	0	1.512039961802657E+001	3.9880574E-001	3.9845374E-001	7.433570260266222E-001	1.000000000000000E+000	1.2786623E-002	9	0	0.000000000000000E+000	2.9619338E-004
2	0	0	1	0	0	1.517029961676599E+001	3.9830676E-001	3.9751920E-001	9.897377354579702E-002	1.000000000000000E+000	1.2614822E-002	9	0	0.000000000000000E+000	3.9343977E-005
2	1	0	1	0	0	1.522029961550288E+001	3.9780733E-001	3.9731568E-001	7.826949043078777E-001	1.000000000000000E+000	1.2856088E-002	9	0	0.000000000000000E+000	3.1097696E-004
2	0	0	1	0	0	1.527019961424230E+001	3.9730838E-001	3.9660457E-001	-1.962906463195608E-001	1.000000000000000E+000	1.2675717E-002	9	0	0.000000000000000E+000	-7.7849763E-005
2	1	0	1	0	0	1.532009961298172E+001	3.9680848E-001	3.9665860E-001	9.763223028426475E-001	1.000000000000000E+000	1.2915940E-002	9	0	0.000000000000000E+000	3.8726663E-004
2	0	0	1	0	0	1.537009961171862E+001	3.9630911E-001	3.9536348E-001	-1.939276555814731E-001	1.000000000000000E+000	1.2727671E-002	9	0	0.000000000000000E+000	-7.6671909E-005
2	1	0	1	0	0	1.542009961045551E+001	3.9580971E-001	3.9536452E-001	1.185652959533868E+000	1.000000000000000E+000	1.2978001E-002	9	0	0.000000000000000E+000	4.6876512E-004
2	0	0	1	0	0	1.546999960919493E+001	3.9530939E-001	3.9369413E-001	-2.049723847078605E-002	1.000000000000000E+000	1.2790962E-002	9	0	0.000000000000000E+000	-8.0696427E-006
2	1	0	1	0	0	1.551989960793435E+001	3.9481091E-001	3.9391047E-001	1.311344524839702E+000	1.000000000000000E+000	1.3042776E-002	9	0	0.000000000000000E+000	5.1655236E-004
2	0	0	1	0	0	1.556989960667124E+001	3.9431143E-001	3.9332861E-001	-4.580531181128826E-001	1.000000000000000E+000	1.2841001E-002	9	0	0.000000000000000E+000	-1.8016540E-004
2	1	0	1	0	0	1.561979960541066E+001	3.9381185E-001	3.9335525E-001	1.657043811294077E+000	1.000000000000000E+000	1.3102574E-002	9	0	0.000000000000000E+000	6.5180688E-004
2	0	0	1	0	0	1.566969960415008E+001	3.9331263E-001	3.9323217E-001	-5.640303337775858E-001	1.000000000000000E+000	1.2903922E-002	9	0	0.000000000000000E+000	-2.2179486E-004
2	1	0	1	0	0	1.571969960288698E+001	3.9281330E-001	3.9244792E-001	1.720490664119364E+000	1.000000000000000E+000	1.3166815E-002	9	0	0.000000000000000E+000	6.7520299E-004
2	0	0	1	0	0	1.576959960162640E+001	3.9231452E-001	3.9190343E-001	-8.385449339095068E-001	1.000000000000000E+000	1.2951676E-002	9	0	0.000000000000000E+000	-3.2862864E-004
2	1	0	1	0	0	1.581949960036582E+001	3.9181435E-001	3.9125243E-001	2.063402242647676E+000	1.000000000000000E+000	1.3219993E-002	9	0	0.000000000000000E+000	8.0731115E-004
2	0	0	1	0	0	1.586949959910271E+001	3.9131501E-001	3.9059639E-001	-7.910629153827955E-001	1.000000000000000E+000	1.3010686E-002	9	0	0.000000000000000E+000	-3.0898632E-004
2	1	0	1	0	0	1.591949959783960E+001	3.9081559E-001	3.8999543E-001	2.160682653891238E+000	1.000000000000000E+000	1.3282686E-002	9	0	0.000000000000000E+000	8.4265636E-004
2	0	0	1	0	0	1.596939959657902E+001	3.9031556E-001	3.8951835E-001	-8.620736389282335E-001	1.000000000000000E+000	1.3065479E-002	9	0	0.000000000000000E+000	-3.3579351E-004
2	1	0	1	0	0	1.601929959531844E+001	3.8981685E-001	3.8969663E-001	2.272609546724986E+000	1.000000000000000E+000	1.3334897E-002	9	0	0.000000000000000E+000	8.8562828E-004
2	0	0	1	0	0	1.606929959405534E+001	3.8931739E-001	3.8844708E-001	-1.106409302440255E+000	1.000000000000000E+000	1.3113469E-002	9	0	0.000000000000000E+000	-4.2978144E-004
2	1	0	1	0	0	1.611919959279476E+001	3.8881820E-001	3.8828108E-001	2.459978796466043E+000	1.000000000000000E+000	1.3392966E-002	9	0	0.000000000000000E+000	9.5516321E-004
2	0	0	1	0	0	1.616909959153418E+001	3.8831854E-001	3.8715407E-001	-1.258440933653702E+000	1.000000000000000E+000	1.3174425E-002	9	0	0.000000000000000E+000	-4.8721052E-004
2	1	0	1	0	0	1.621909959027107E+001	3.8781920E-001	3.8728657E-001	2.578283471748577E+000	1.000000000000000E+000	1.3445558E-002	9	0	0.000000000000000E+000	9.9853461E-004
2	0	0	1	0	0	1.626899958901049E+001	3.8732070E-001	3.8608831E-001	-1.417533480452317E+000	1.000000000000000E+000	1.3210395E-002	9	0	0.000000000000000E+000	-5.4729311E-004
2	1	0	1	0	0	1.631889958774991E+001	3.8682041E-001	3.8623202E-001	2.948650742303855E+000	1.000000000000000E+000	1.3495068E-002	9	0	0.000000000000000E+000	1.1388633E-003
2	0	0	1	0	0	1.636889958648680E+001	3.8632098E-001	3.8624370E-001	-1.486011103731443E+000	1.000000000000000E+000	1.3274804E-002	9	0	0.000000000000000E+000	-5.7396240E-004
2	1	0	1	0	0	1.641889958522370E+001	3.8582152E-001	3.8582084E-001	2.895260653615992E+000	1.000000000000000E+000	1.3553199E-002	9	0	0.000000000000000E+000	1.1170519E-003
2	0	0	1	0	0	1.646879958396312E+001	3.8532168E-001	3.8467821E-001	-1.763729904421107E+000	1.000000000000000E+000	1.3315615E-002	9	0	0.000000000000000E+000	-6.7846850E-004
2	1	0	1	0	0	1.651869958270254E+001	3.8482273E-001	3.8628289E-001	3.142609186177658E+000	1.000000000000000E+000	1.3597538E-002	9	0	0.000000000000000E+000	1.2139361E-003
2	0	0	1	0	0	1.656869958143943E+001	3.8432336E-001	3.8432646E-001	-1.790765478703221E+000	1.000000000000000E+000	1.3370515E-002	9	0	0.000000000000000E+000	-6.8823854E-004
2	1	0	1	0	0	1.661859958017885E+001	3.8382438E-001	3.8404155E-001	3.372659208716546E+000	1.000000000000000E+000	1.3656725E-002	9	0	0.000000000000000E+000	1.2952413E-003
2	0	0	1	0	0	1.666849957891827E+001	3.8332450E-001	3.8285434E-001	-2.026760397325976E+000	1.000000000000000E+000	1.3425598E-002	9	0	0.000000000000000E+000	-7.7595405E-004
2	1	0	1	0	0	1.671849957765517E+001	3.8282508E-001	3.8228843E-001	3.298714265417090E+000	1.000000000000000E+000	1.3698273E-002	9	0	0.000000000000000E+000	1.2610602E-003
2	0	0	1	0	0	1.676849957639206E+001	3.8232568E-001	3.8100073E-001	-2.222248341150381E+000	1.000000000000000E+000	1.3460211E-002	9	0	0.000000000000000E+000	-8.4667822E-004
2	1	0	1	0	0	1.681839957513148E+001	3.8182542E-001	3.8187066E-001	3.345295876496424E+000	1.000000000000000E+000	1.3742784E-002	9	0	0.000000000000000E+000	1.2774704E-003
2	0	0	1	0	0	1.686829957387090E+001	3.8132691E-001	3.8136849E-001	-2.146816700013098E+000	1.000000000000000E+000	1.3517485E-002	9	0	0.000000000000000E+000	-8.1872824E-004
2	1	0	1	0	0	1.691829957260779E+001	3.8082746E-001	3.8039982E-001	3.649399402106731E+000	1.000000000000000E+000	1.3797879E-002	9	0	0.000000000000000E+000	1.3882309E-003
2	0	0	1	0	0	1.696819957134721E+001	3.8032782E-001	3.7983677E-001	-2.643363055270889E+000	1.000000000000000E+000	1.3555094E-002	9	0	0.000000000000000E+000	-1.0040465E-003
2	1	0	1	0	0	1.701809957008663E+001	3.7982866E-001	3.7973845E-001	3.764144994747078E+000	1.000000000000000E+000	1.3832248E-002	9	0	0.000000000000000E+000	1.4293906E-003
2	0	0	1	0	0	1.706809956882353E+001	3.7932926E-001	3.7879413E-001	-2.396293369468282E+000	1.000000000000000E+000	1.3609273E-002	9	0	0.000000000000000E+000	-9.0770185E-004
2	1	0	1	0	0	1.711799956756295E+001	3.7883052E-001	3.7939388E-001	3.942340962716038E+000	1.000000000000000E+000	1.3891086E-002	9	0	0.000000000000000E+000	1.4957000E-003
2	0	0	1	0	0	1.716789956630237E+001	3.7833047E-001	3.7859383E-001	-2.756972154557445E+000	1.000000000000000E+000	1.3657823E-002	9	0	0.000000000000000E+000	-1.0437727E-003
2	1	0	1	0	0	1.721789956503926E+001	3.7783104E-001	3.7818265E-001	3.921665045374183E+000	1.000000000000000E+000	1.3926404E-002	9	0	0.000000000000000E+000	1.4831057E-003
2	0	0	1	0	0	1.726789956377615E+001	3.7733158E-001	3.7702852E-001	-2.645507759230203E+000	1.000000000000000E+000	1.3704356E-002	9	0	0.000000000000000E+000	-9.9743193E-004
2	1	0	1	0	0	1.731779956251557E+001	3.7683153E-001	3.7792173E-001	3.633765958244174E+000	1.000000000000000E+000	1.3979971E-002	9	0	0.000000000000000E+000	1.3732791E-003
2	0	0	1	0	0	1.736769956125499E+001	3.7633279E-001	3.7598884E-001	-2.919718308988429E+000	1.000000000000000E+000	1.3751471E-002	9	0	0.000000000000000E+000	-1.0977815E-003
2	1	0	1	0	0	1.741769955999189E+001	3.7583339E-001	3.7564015E-001	3.958343276412059E+000	1.000000000000000E+000	1.4012367E-002	9	0	0.000000000000000E+000	1.4869127E-003
2	0	0	1	0	0	1.746759955873131E+001	3.7533420E-001	3.7418473E-001	-2.780302365375377E+000	1.000000000000000E+000	1.3786425E-002	9	0	0.000000000000000E+000	-1.0403467E-003
2	1	0	1	0	0	1.751749955747073E+001	3.7483457E-001	3.7468946E-001	3.987458724042591E+000	1.000000000000000E+000	1.4055503E-002	9	0	0.000000000000000E+000	1.4940588E-003
2	0	0	1	0	0	1.756749955620762E+001	3.7433514E-001	3.7397623E-001	-3.437871023652676E+000	1.000000000000000E+000	1.3830453E-002	9	0	0.000000000000000E+000	-1.2856821E-003
2	1	0	1	0	0	1.761749955494452E+001	3.7383574E-001	3.7318879E-001	4.130051648559249E+000	1.000000000000000E+000	1.4082312E-002	9	0	0.000000000000000E+000	1.5412890E-003
2	0	0	1	0	0	1.766729955368646E+001	3.7333634E-001	3.7300435E-001	-3.510274802717120E+000	1.000000000000000E+000	1.3865408E-002	9	0	0.000000000000000E+000	-1.3093478E-003
2	1	0	1	0	0	1.771729955242336E+001	3.7283698E-001	3.7325549E-001	4.259961573038122E+000	1.000000000000000E+000	1.4119839E-002	9	0	0.000000000000000E+000	1.5900540E-003
2	0	0	1	0	0	1.776729955116025E+001	3.7233752E-001	3.7324494E-001	-3.330679437100631E+000	1.000000000000000E+000	1.3919784E-002	9	0	0.000000000000000E+000	-1.2431593E-003
2	1	0	1	0	0	1.781719954989967E+001	3.7183791E-001	3.7186801E-001	4.462372210034850E+000	1.000000000000000E+000	1.4179618E-002	9	0	0.000000000000000E+000	1.6594135E-003
2	0	0	1	0	0	1.786709954863909E+001	3.7133873E-001	3.6987472E-001	-3.823897854717499E+000	1.000000000000000E+000	1.3969728E-002	9	0	0.000000000000000E+000	-1.4143632E-003
2	1	0	1	0	0	1.791709954737598E+001	3.7083933E-001	3.7132350E-001	4.457265041156660E+000	1.000000000000000E+000	1.4208247E-002	9	0	0.000000000000000E+000	1.6550872E-003
2	0	0	1	0	0	1.796699954611540E+001	3.7034035E-001	3.6992773E-001	-2.683329771258183E+000	1.000000000000000E+000	1.4040723E-002	9	0	0.000000000000000E+000	-9.9263806E-004
2	1	0	1	0	0	1.801689954485482E+001	3.6984053E-001	3.6984819E-001	3.750542007134705E+000	1.000000000000000E+000	1.4291508E-002	9	0	0.000000000000000E+000	1.3871312E-003
2	0	0	1	0	0	1.806689954359172E+001	3.6934111E-001	3.6920699E-001	-4.103566152030146E+000	1.000000000000000E+000	1.4079743E-002	9	0	0.000000000000000E+000	-1.5150653E-003
2	1	0	1	0	0	1.811689954232861E+001	3.6884165E-001	3.6833477E-001	4.300913439388729E+000	1.000000000000000E+000	1.4292113E-002	9	0	0.000000000000000E+000	1.5841760E-003
2	0	0	1	0	0	1.816679954106803E+001	3.6834139E-001	3.6874205E-001	-3.407067152590038E+000	1.000000000000000E+000	1.4111042E-002	9	0	0.000000000000000E+000	-1.2563289E-003
2	1	0	1	0	0	1.821669953980745E+001	3.6784285E-001	3.6802420E-001	4.393054537655026E+000	1.000000000000000E+000	1.4350980E-002	9	0	0.000000000000000E+000	1.6167504E-003
2	0	0	1	0	0	1.826669953854434E+001	3.6734346E-001	3.6710009E-001	-3.517345450566593E+000	1.000000000000000E+000	1.4184590E-002	9	0	0.000000000000000E+000	-1.2912179E-003
2	1	0	1	0	0	1.831659953728376E+001	3.6684406E-001	3.6630449E-001	4.018167557862625E+000	1.000000000000000E+000	1.4408309E-002	9	0	0.000000000000000E+000	1.4718728E-003
2	0	0	1	0	0	1.836649953602318E+001	3.6634463E-001	3.6547855E-001	-3.971440365133141E+000	1.000000000000000E+000	1.4225278E-002	9	0	0.000000000000000E+000	-1.4514762E-003
2	1	0	1	0	0	1.841649953476008E+001	3.6584520E-001	3.6540115E-001	4.451346987678356E+000	1.000000000000000E+000	1.4437063E-002	9	0	0.000000000000000E+000	1.6265273E-003
2	0	0	1	0	0	1.846639953349950E+001	3.6534673E-001	3.6419821E-001	-2.073090542172314E+000	1.000000000000000E+000	1.4321095E-002	9	0	0.000000000000000E+000	-7.5501588E-004
2	1	0	1	0	0	1.851629953223892E+001	3.6484641E-001	3.6440387E-001	4.128637408648665E+000	1.000000000000000E+000	1.4550116E-002	9	0	0.000000000000000E+000	1.5044914E-003
2	0	0	1	0	0	1.856629953097581E+001	3.6434704E-001	3.6294663E-001	-3.729374393523916E+000	1.000000000000000E+000	1.4400582E-002	9	0	0.000000000000000E+000	-1.3535639E-003
2	1	0	1	0	0	1.861629952971271E+001	3.6384758E-001	3.6312467E-001	4.395821257206407E+000	1.000000000000000E+000	1.4602035E-002	9	0	0.000000000000000E+000	1.5962311E-003
2	0	0	1	0	0	1.866619952845213E+001	3.6334750E-001	3.6239472E-001	-3.479649193789342E+000	1.000000000000000E+000	1.4458832E-002	9	0	0.000000000000000E+000	-1.2610065E-003
2	1	0	1	0	0	1.871609952719155E+001	3.6284879E-001	3.6232767E-001	4.296410232818303E+000	1.000000000000000E+000	1.4651872E-002	9	0	0.000000000000000E+000	1.5567082E-003
2	0	0	1	0	0	1.876609952592844E+001	3.6234939E-001	3.6217931E-001	-3.999771725224420E+000	1.000000000000000E+000	1.4506072E-002	9	0	0.000000000000000E+000	-1.4486345E-003
2	1	0	1	0	0	1.881599952466786E+001	3.6185023E-001	3.6061829E-001	3.665681983501393E+000	1.000000000000000E+000	1.4669056E-002	9	0	0.000000000000000E+000	1.3219119E-003
2	0	0	1	0	0	1.886589952340728E+001	3.6135057E-001	3.6044857E-001	-4.065058259212467E+000	1.000000000000000E+000	1.4523761E-002	9	0	0.000000000000000E+000	-1.4652445E-003
2	1	0	1	0	0	1.891589952214417E+001	3.6085117E-001	3.5976180E-001	4.254873852582861E+000	1.000000000000000E+000	1.4680226E-002	9	0	0.000000000000000E+000	1.5307411E-003
2	0	0	1	0	0	1.896589952088107E+001	3.6035171E-001	3.5943434E-001	-3.754922624155559E+000	1.000000000000000E+000	1.4559599E-002	9	0	0.000000000000000E+000	-1.3496481E-003
2	1	0	1	0	0	1.901569951962301E+001	3.5985231E-001	3.5928699E-001	4.321317666577889E+000	1.000000000000000E+000	1.4709217E-002	9	0	0.000000000000000E+000	1.5525932E-003
2	0	0	1	0	0	1.906569951835991E+001	3.5935292E-001	3.5897440E-001	-3.865464918504427E+000	1.000000000000000E+000	1.4590793E-002	9	0	0.000000000000000E+000	-1.3876029E-003
2	1	0	1	0	0	1.911569951709680E+001	3.5885352E-001	3.5879844E-001	4.076032569657713E+000	1.000000000000000E+000	1.4728919E-002	9	0	0.000000000000000E+000	1.4624741E-003
2	0	0	1	0	0	1.916559951583622E+001	3.5835388E-001	3.5847697E-001	-3.682675496837746E+000	1.000000000000000E+000	1.4622964E-002	9	0	0.000000000000000E+000	-1.3201543E-003
2	1	0	1	0	0	1.921549951457564E+001	3.5785469E-001	3.5692784E-001	4.081336587523495E+000	1.000000000000000E+000	1.4751257E-002	9	0	0.000000000000000E+000	1.4567426E-003
2	0	0	1	0	0	1.926549951331253E+001	3.5735527E-001	3.5680810E-001	-3.718813798205915E+000	1.000000000000000E+000	1.4646078E-002	9	0	0.000000000000000E+000	-1.3269029E-003
2	1	0	1	0	0	1.931539951205195E+001	3.5685635E-001	3.5632849E-001	4.035534025734563E+000	1.000000000000000E+000	1.4767585E-002	9	0	0.000000000000000E+000	1.4379758E-003
2	0	0	1	0	0	1.936529951079137E+001	3.5635647E-001	3.5581717E-001	-3.468429951636132E+000	1.000000000000000E+000	1.4686139E-002	9	0	0.000000000000000E+000	-1.2341270E-003
2	1	0	1	0	0	1.941529950952827E+001	3.5585710E-001	3.5547379E-001	4.153662331870166E+000	1.000000000000000E+000	1.4799399E-002	9	0	0.000000000000000E+000	1.4765181E-003
2	0	0	1	0	0	1.946529950826516E+001	3.5535765E-001	3.5569739E-001	-3.581907859459065E+000	1.000000000000000E+000	1.4713311E-002	9	0	0.000000000000000E+000	-1.2740752E-003
2	1	0	1	0	0	1.951519950700458E+001	3.5485736E-001	3.5343975E-001	3.970416442576230E+000	1.000000000000000E+000	1.4811484E-002	9	0	0.000000000000000E+000	1.4033030E-003
2	0	0	1	0	0	1.956509950574400E+001	3.5435885E-001	3.5357985E-001	-3.301042696992027E+000	1.000000000000000E+000	1.4741729E-002	9	0	0.000000000000000E+000	-1.1671822E-003
2	1	0	1	0	0	1.961509950448090E+001	3.5385945E-001	3.5343361E-001	4.092773479396026E+000	1.000000000000000E+000	1.4836724E-002	9	0	0.000000000000000E+000	1.4465237E-003
2	0	0	1	0	0	1.966499950322032E+001	3.5336006E-001	3.5333964E-001	-3.234210494446382E+000	1.000000000000000E+000	1.4778188E-002	9	0	0.000000000000000E+000	-1.1427748E-003
2	1	0	1	0	0	1.971489950195974E+001	3.5286063E-001	3.5316861E-001	3.889260492247001E+000	1.000000000000000E+000	1.4850646E-002	9	0	0.000000000000000E+000	1.3735647E-003
2	0	0	1	0	0	1.976489950069663E+001	3.5236123E-001	3.5149625E-001	-3.244441379815527E+000	1.000000000000000E+000	1.4797346E-002	9	0	0.000000000000000E+000	-1.1404090E-003
2	1	0	1	0	0	1.981479949943605E+001	3.5186270E-001	3.5153088E-001	3.916826554971095E+000	1.000000000000000E+000	1.4868173E-002	9	0	0.000000000000000E+000	1.3768855E-003
2	0	0	1	0	0	1.986469949817547E+001	3.5136238E-001	3.5144857E-001	-3.006678755156706E+000	1.000000000000000E+000	1.4835886E-002	9	0	0.000000000000000E+000	-1.0566929E-003
2	1	0	1	0	0	1.991469949691236E+001	3.5086298E-001	3.5047349E-001	3.802514751464241E+000	1.000000000000000E+000	1.4890688E-002	9	0	0.000000000000000E+000	1.3326806E-003
2	0	0	1	0	0	1.996469949564926E+001	3.5036358E-001	3.5006446E-001	-3.132593111427529E+000	1.000000000000000E+000	1.4851579E-002	9	0	0.000000000000000E+000	-1.0966095E-003
2	1	0	1	0	0	1.999469949489139E+001	3.5006398E-001	3.4752089E-001	3.150260880200761E+001	1.000000000000000E+000	1.4899481E-002	9	0	0.000000000000000E+000	1.0947814E-002
2	1	0	0	0	0	1.999859949479287E+001	3.4998915E-001	3.4854156E-001	4.598490715026855E+000	1.000000000000000E+000	1.5040512E-002	9	0	3.899999901477713E-003	1.6027652E-003
2	0	0	0	0	1	2.000359949466656E+001	3.5003906E-001	3.5022032E-001	-2.471140368418264E+001	2.000000000000000E+000	1.4933548E-002	9	0	0.000000000000000E+000	-8.6544361E-003
2	0	0	1	0	1	2.003109949397185E+001	3.5031360E-001	3.4935120E-001	-3.443311055141596E-001	2.000000000000000E+000	1.4791706E-002	9	0	2.749999930529157E-002	-1.2029248E-004
2	1	0	1	0	1	2.008109949270874E+001	3.5081303E-001	3.5011530E-001	5.297659660739065E-001	2.000000000000000E+000	1.5007930E-002	9	0	0.000000000000000E+000	1.8547916E-004
2	0	0	1	0	1	2.013109949144564E+001	3.5131246E-001	3.5005489E-001	-4.839256879500695E-001	2.000000000000000E+000	1.4803926E-002	9	0	0.000000000000000E+000	-1.6940055E-004
2	1	0	1	0	1	2.018099949018506E+001	3.5181278E-001	3.5149214E-001	6.856919058728286E-001	2.000000000000000E+000	1.5032915E-002	9	0	0.000000000000000E+000	2.4101531E-004
2	0	0	1	0	1	2.023089948892448E+001	3.5231125E-001	3.5191593E-001	-5.647520291212107E-001	2.000000000000000E+000	1.4831900E-002	9	0	0.000000000000000E+000	-1.9874523E-004
2	1	0	1	0	1	2.028089948766137E+001	3.5281065E-001	3.5201982E-001	8.839260559654782E-001	2.000000000000000E+000	1.5061595E-002	9	0	0.000000000000000E+000	3.1115950E-004
2	0	0	1	0	1	2.033079948640079E+001	3.5331008E-001	3.5263124E-001	-5.948560062506001E-001	2.000000000000000E+000	1.4841465E-002	9	0	0.000000000000000E+000	-2.0976481E-004
2	1	0	1	0	1	2.038069948514021E+001	3.5380948E-001	3.5263237E-001	1.264143922622571E+000	2.000000000000000E+000	1.5081258E-002	9	0	0.000000000000000E+000	4.4577807E-004
2	0	0	1	0	1	2.043069948387711E+001	3.5430893E-001	3.5337958E-001	-8.363798698365787E-001	2.000000000000000E+000	1.4868760E-002	9	0	0.000000000000000E+000	-2.9555956E-004
2	1	0	1	0	1	2.048059948261653E+001	3.5480744E-001	3.5487610E-001	1.353987068519965E+000	2.000000000000000E+000	1.5116283E-002	9	0	0.000000000000000E+000	4.8049766E-004
2	0	0	1	0	1	2.053049948135595E+001	3.5530773E-001	3.5383531E-001	-1.078754880884025E+000	2.000000000000000E+000	1.4891515E-002	9	0	0.000000000000000E+000	-3.8170157E-004
2	1	0	1	0	1	2.058049948009284E+001	3.5580713E-001	3.5523847E-001	1.549283790991417E+000	2.000000000000000E+000	1.5131487E-002	9	0	0.000000000000000E+000	5.5036519E-004
2	0	0	1	0	1	2.063049947882973E+001	3.5630652E-001	3.5524485E-001	-1.050592190590582E+000	2.000000000000000E+000	1.4907641E-002	9	0	0.000000000000000E+000	-3.7321745E-004
2	1	0	1	0	1	2.068039947756915E+001	3.5680640E-001	3.5649028E-001	1.967878283167074E+000	2.000000000000000E+000	1.5163855E-002	9	0	0.000000000000000E+000	7.0152950E-004
2	0	0	1	0	1	2.073029947630857E+001	3.5730538E-001	3.5731366E-001	-1.175584092952187E+000	2.000000000000000E+000	1.4940007E-002	9	0	0.000000000000000E+000	-4.2005227E-004
2	1	0	1	0	1	2.078029947504547E+001	3.5780478E-001	3.5760295E-001	1.810718437107861E+000	2.000000000000000E+000	1.5185847E-002	9	0	0.000000000000000E+000	6.4751826E-004
2	0	0	1	0	1	2.083019947378489E+001	3.5830396E-001	3.5682565E-001	-1.255580763743740E+000	2.000000000000000E+000	1.4947045E-002	9	0	0.000000000000000E+000	-4.4802343E-004
2	1	0	1	0	1	2.088009947252431E+001	3.5880354E-001	3.5806182E-001	2.327041908360659E+000	2.000000000000000E+000	1.5214030E-002	9	0	0.000000000000000E+000	8.3322485E-004
2	0	0	1	0	1	2.093009947126120E+001	3.5930297E-001	3.5882387E-001	-1.320483359062838E+000	2.000000000000000E+000	1.4992509E-002	9	0	0.000000000000000E+000	-4.7382095E-004
2	1	0	1	0	1	2.098009946999809E+001	3.5980237E-001	3.5941315E-001	2.188384303292132E+000	2.000000000000000E+000	1.5248863E-002	9	0	0.000000000000000E+000	7.8653410E-004
2	0	0	1	0	1	2.102989946874004E+001	3.6030179E-001	3.5961768E-001	-1.648116177118943E+000	2.000000000000000E+000	1.5012648E-002	9	0	0.000000000000000E+000	-5.9269171E-004
2	1	0	1	0	1	2.107989946747693E+001	3.6080119E-001	3.6068389E-001	2.530861659182442E+000	2.000000000000000E+000	1.5276197E-002	9	0	0.000000000000000E+000	9.1284100E-004
2	0	0	1	0	1	2.112989946621383E+001	3.6130059E-001	3.6043906E-001	-1.539906791874820E+000	2.000000000000000E+000	1.5049653E-002	9	0	0.000000000000000E+000	-5.5504258E-004
2	1	0	1	0	1	2.117979946495325E+001	3.6180025E-001	3.6212894E-001	2.587224664112931E+000	2.000000000000000E+000	1.5316283E-002	9	0	0.000000000000000E+000	9.3690894E-004
2	0	0	1	0	1	2.122969946369267E+001	3.6229941E-001	3.6130705E-001	-1.823646678584859E+000	2.000000000000000E+000	1.5073823E-002	9	0	0.000000000000000E+000	-6.5889640E-004
2	1	0	1	0	1	2.127969946242956E+001	3.6279887E-001	3.6244848E-001	2.773297472276496E+000	2.000000000000000E+000	1.5336967E-002	9	0	0.000000000000000E+000	1.0051775E-003
2	0	0	1	0	1	2.132959946116898E+001	3.6329761E-001	3.6238292E-001	-1.930980805462765E+000	2.000000000000000E+000	1.5100250E-002	9	0	0.000000000000000E+000	-6.9975446E-004
2	1	0	1	0	1	2.137949945990840E+001	3.6379766E-001	3.6307380E-001	2.838352978373472E+000	2.000000000000000E+000	1.5370863E-002	9	0	0.000000000000000E+000	1.0305316E-003
2	0	0	1	0	1	2.142949945864530E+001	3.6429706E-001	3.6350936E-001	-2.272885343590827E+000	2.000000000000000E+000	1.5122104E-002	9	0	0.000000000000000E+000	-8.2621508E-004
2	1	0	1	0	1	2.147949945738219E+001	3.6479646E-001	3.6456811E-001	3.128566011336492E+000	2.000000000000000E+000	1.5385057E-002	9	0	0.000000000000000E+000	1.1405754E-003
2	0	0	1	0	1	2.152939945612161E+001	3.6529678E-001	3.6475334E-001	-1.701070161006315E+000	2.000000000000000E+000	1.5151272E-002	9	0	0.000000000000000E+000	-6.2047102E-004
2	1	0	1	0	1	2.157929945486103E+001	3.6579531E-001	3.6566931E-001	3.573791408596406E+000	2.000000000000000E+000	1.5442193E-002	9	0	0.000000000000000E+000	1.3068258E-003
2	0	0	1	0	1	2.162929945359792E+001	3.6629471E-001	3.6612076E-001	-1.630110487269883E+000	2.000000000000000E+000	1.5236057E-002	9	0	0.000000000000000E+000	-5.9681729E-004
2	1	0	1	0	1	2.167919945233734E+001	3.6679408E-001	3.6624038E-001	3.359736417841665E+000	2.000000000000000E+000	1.5519318E-002	9	0	0.000000000000000E+000	1.2304712E-003
2	0	0	1	0	1	2.172909945107676E+001	3.6729348E-001	3.6661252E-001	-1.987437789458905E+000	2.000000000000000E+000	1.5298325E-002	9	0	0.000000000000000E+000	-7.2861958E-004
2	1	0	1	0	1	2.177909944981366E+001	3.6779293E-001	3.6775821E-001	3.393598395125252E+000	2.000000000000000E+000	1.5573800E-002	9	0	0.000000000000000E+000	1.2480237E-003
2	0	0	1	0	1	2.182899944855308E+001	3.6829144E-001	3.6753440E-001	-1.035626317796469E+000	2.000000000000000E+000	1.5375733E-002	9	0	0.000000000000000E+000	-3.8062831E-004
2	1	0	1	0	1	2.187889944729250E+001	3.6879173E-001	3.6967757E-001	4.079185081204898E+000	2.000000000000000E+000	1.5677918E-002	9	0	0.000000000000000E+000	1.5079832E-003
2	0	0	1	0	1	2.192889944602939E+001	3.6929113E-001	3.6891982E-001	-2.451787181810513E+000	2.000000000000000E+000	1.5465287E-002	9	0	0.000000000000000E+000	-9.0451288E-004
2	1	0	1	0	1	2.197889944476628E+001	3.6979052E-001	3.6981851E-001	2.812450766131462E+000	2.000000000000000E+000	1.5713226E-002	9	0	0.000000000000000E+000	1.0400964E-003
2	0	0	1	0	1	2.202879944350570E+001	3.7029037E-001	3.7091586E-001	-2.869017486686445E+000	2.000000000000000E+000	1.5455946E-002	9	0	0.000000000000000E+000	-1.0641641E-003
2	1	0	1	0	1	2.207869944224512E+001	3.7078935E-001	3.7064305E-001	4.092850258960812E+000	2.000000000000000E+000	1.5734000E-002	9	0	0.000000000000000E+000	1.5169865E-003
2	0	0	1	0	1	2.212869944098202E+001	3.7128881E-001	3.7037069E-001	-3.125460533272253E+000	2.000000000000000E+000	1.5503331E-002	9	0	0.000000000000000E+000	-1.1575790E-003
2	1	0	1	0	1	2.217859943972144E+001	3.7178797E-001	3.7141344E-001	3.462232843387909E+000	2.000000000000000E+000	1.5743939E-002	9	0	0.000000000000000E+000	1.2859198E-003
2	0	0	1	0	1	2.222849943846086E+001	3.7228760E-001	3.7146017E-001	-1.864029390512455E+000	2.000000000000000E+000	1.5554999E-002	9	0	0.000000000000000E+000	-6.9241266E-004
2	1	0	1	0	1	2.227849943719775E+001	3.7278700E-001	3.7284747E-001	5.149092319650919E+000	2.000000000000000E+000	1.5872160E-002	9	0	0.000000000000000E+000	1.9198260E-003
2	0	0	1	0	1	2.232849943593465E+001	3.7328640E-001	3.7265778E-001	-4.657242411144837E-001	2.000000000000000E+000	1.5751002E-002	9	0	0.000000000000000E+000	-1.7355576E-004
2	1	0	1	0	1	2.237829943467659E+001	3.7378582E-001	3.7467355E-001	5.554101587426501E+000	2.000000000000000E+000	1.6099518E-002	9	0	0.000000000000000E+000	2.0809749E-003
2	0	0	1	0	1	2.242829943341349E+001	3.7428525E-001	3.7463754E-001	-1.618597350834641E+000	2.000000000000000E+000	1.5958384E-002	9	0	0.000000000000000E+000	-6.0638733E-004
2	1	0	1	0	1	2.247829943215038E+001	3.7478465E-001	3.7549812E-001	4.021968969751256E+000	2.000000000000000E+000	1.6243646E-002	9	0	0.000000000000000E+000	1.5102418E-003
2	0	0	1	0	1	2.252819943088980E+001	3.7528425E-001	3.7519637E-001	-3.141599311146663E+000	2.000000000000000E+000	1.6038863E-002	9	0	0.000000000000000E+000	-1.1787167E-003
2	1	0	1	0	1	2.257809942962922E+001	3.7578341E-001	3.7553626E-001	3.910228274294678E+000	2.000000000000000E+000	1.6281510E-002	9	0	0.000000000000000E+000	1.4684325E-003
2	0	0	1	0	1	2.262809942836611E+001	3.7628287E-001	3.7613085E-001	-3.280459108344015E+000	2.000000000000000E+000	1.6075630E-002	9	0	0.000000000000000E+000	-1.2338819E-003
2	1	0	1	0	1	2.267799942710553E+001	3.7678158E-001	3.7596956E-001	3.869780633306661E+000	2.000000000000000E+000	1.6306873E-002	9	0	0.000000000000000E+000	1.4549197E-003
2	0	0	1	0	1	2.272789942584495E+001	3.7728167E-001	3.7645409E-001	-3.321318502065537E+000	2.000000000000000E+000	1.6114127E-002	9	0	0.000000000000000E+000	-1.2503240E-003
2	1	0	1	0	1	2.277789942458185E+001	3.7778106E-001	3.7752765E-001	3.843420496021415E+000	2.000000000000000E+000	1.6342534E-002	9	0	0.000000000000000E+000	1.4509975E-003
2	0	0	1	0	1	2.282789942331874E+001	3.7828046E-001	3.7832472E-001	-3.187240947847840E+000	2.000000000000000E+000	1.6154259E-002	9	0	0.000000000000000E+000	-1.2058120E-003
2	1	0	1	0	1	2.287779942205816E+001	3.7878054E-001	3.7907341E-001	3.495831600444227E+000	2.000000000000000E+000	1.6376689E-002	9	0	0.000000000000000E+000	1.3251768E-003
2	0	0	1	0	1	2.292769942079758E+001	3.7927929E-001	3.7863097E-001	-3.457362416420929E+000	2.000000000000000E+000	1.6188657E-002	9	0	0.000000000000000E+000	-1.3090644E-003
2	1	0	1	0	1	2.297769941953447E+001	3.7977874E-001	3.7972894E-001	3.701581860509926E+000	2.000000000000000E+000	1.6404074E-002	9	0	0.000000000000000E+000	1.4055978E-003
2	0	0	1	0	1	2.302759941827389E+001	3.8027790E-001	3.7959611E-001	-3.378724410336972E+000	2.000000000000000E+000	1.6213531E-002	9	0	0.000000000000000E+000	-1.2825506E-003
2	1	0	1	0	1	2.307749941701331E+001	3.8077754E-001	3.8083965E-001	3.985844216844860E+000	2.000000000000000E+000	1.6421407E-002	9	0	0.000000000000000E+000	1.5179676E-003
2	0	0	1	0	1	2.312749941575021E+001	3.8127694E-001	3.8049519E-001	-3.599786723005611E+000	2.000000000000000E+000	1.6245484E-002	9	0	0.000000000000000E+000	-1.3697016E-003
2	1	0	1	0	1	2.317739941448963E+001	3.8177547E-001	3.8179415E-001	4.023237115121333E+000	2.000000000000000E+000	1.6462078E-002	9	0	0.000000000000000E+000	1.5360484E-003
2	0	0	1	0	1	2.322729941322905E+001	3.8227576E-001	3.8209766E-001	-3.628778598014875E+000	2.000000000000000E+000	1.6295742E-002	9	0	0.000000000000000E+000	-1.3865478E-003
2	1	0	1	0	1	2.327729941196594E+001	3.8277519E-001	3.8221318E-001	4.058847027196414E+000	2.000000000000000E+000	1.6500805E-002	9	0	0.000000000000000E+000	1.5513448E-003
2	0	0	1	0	1	2.332729941070284E+001	3.8327459E-001	3.8254175E-001	-3.750925464978593E+000	2.000000000000000E+000	1.6326686E-002	9	0	0.000000000000000E+000	-1.4348855E-003
2	1	0	1	0	1	2.337719940944226E+001	3.8377443E-001	3.8302019E-001	4.011040330992870E+000	2.000000000000000E+000	1.6535653E-002	9	0	0.000000000000000E+000	1.5363095E-003
2	0	0	1	0	1	2.342709940818168E+001	3.8427335E-001	3.8234034E-001	-3.555221452337193E+000	2.000000000000000E+000	1.6383249E-002	9	0	0.000000000000000E+000	-1.3593045E-003
2	1	0	1	0	1	2.347709940691857E+001	3.8477281E-001	3.8300696E-001	4.145731335487802E+000	2.000000000000000E+000	1.6585806E-002	9	0	0.000000000000000E+000	1.5878440E-003
2	0	0	1	0	1	2.352699940565799E+001	3.8527179E-001	3.8400671E-001	-3.690223114137851E+000	2.000000000000000E+000	1.6430225E-002	9	0	0.000000000000000E+000	-1.4170704E-003
2	1	0	1	0	1	2.357689940439741E+001	3.8577160E-001	3.8513511E-001	4.015159683616943E+000	2.000000000000000E+000	1.6613480E-002	9	0	0.000000000000000E+000	1.5463789E-003
2	0	0	1	0	1	2.362689940313430E+001	3.8627100E-001	3.8543928E-001	-3.658969250112804E+000	2.000000000000000E+000	1.6475650E-002	9	0	0.000000000000000E+000	-1.4103105E-003
2	1	0	1	0	1	2.367689940187120E+001	3.8677040E-001	3.8632527E-001	4.144101018821615E+000	2.000000000000000E+000	1.6662845E-002	9	0	0.000000000000000E+000	1.6009710E-003
2	0	0	1	0	1	2.372679940061062E+001	3.8727072E-001	3.8661662E-001	-3.573123476923167E+000	2.000000000000000E+000	1.6523983E-002	9	0	0.000000000000000E+000	-1.3814289E-003
2	1	0	1	0	1	2.377669939935004E+001	3.8776925E-001	3.8720921E-001	4.215120725945532E+000	2.000000000000000E+000	1.6696583E-002	9	0	0.000000000000000E+000	1.6321335E-003
2	0	0	1	0	1	2.382669939808693E+001	3.8826862E-001	3.8818425E-001	-3.466893475700736E+000	2.000000000000000E+000	1.6577348E-002	9	0	0.000000000000000E+000	-1.3457935E-003
2	1	0	1	0	1	2.387659939682635E+001	3.8876832E-001	3.8828999E-001	4.369392746535667E+000	2.000000000000000E+000	1.6756937E-002	9	0	0.000000000000000E+000	1.6965915E-003
2	0	0	1	0	1	2.392649939556577E+001	3.8926747E-001	3.8843647E-001	-3.318736271581841E+000	2.000000000000000E+000	1.6649751E-002	9	0	0.000000000000000E+000	-1.2891182E-003
2	1	0	1	0	1	2.397649939430266E+001	3.8976687E-001	3.8920382E-001	4.221239015387958E+000	2.000000000000000E+000	1.6807746E-002	9	0	0.000000000000000E+000	1.6429223E-003
2	0	0	1	0	1	2.402639939304208E+001	3.9026558E-001	3.8929018E-001	-3.235828082889121E+000	2.000000000000000E+000	1.6706036E-002	9	0	0.000000000000000E+000	-1.2596761E-003
2	1	0	1	0	1	2.407629939178150E+001	3.9076570E-001	3.9061651E-001	4.371394960200703E+000	2.000000000000000E+000	1.6865797E-002	9	0	0.000000000000000E+000	1.7075391E-003
2	0	0	1	0	1	2.412629939051840E+001	3.9126509E-001	3.9114958E-001	-3.103555083886832E+000	2.000000000000000E+000	1.6787313E-002	9	0	0.000000000000000E+000	-1.2139543E-003
2	1	0	1	0	1	2.417629938925529E+001	3.9176449E-001	3.9070344E-001	4.061889649157267E+000	2.000000000000000E+000	1.6931770E-002	9	0	0.000000000000000E+000	1.5869943E-003
2	0	0	1	0	1	2.422619938799471E+001	3.9226460E-001	3.9124697E-001	-3.114800565823856E+000	2.000000000000000E+000	1.6832124E-002	9	0	0.000000000000000E+000	-1.2186563E-003
2	1	0	1	0	1	2.427609938673413E+001	3.9276329E-001	3.9147070E-001	4.228756750047509E+000	2.000000000000000E+000	1.6961597E-002	9	0	0.000000000000000E+000	1.6554344E-003
2	0	0	1	0	1	2.432609938547103E+001	3.9326268E-001	3.9255387E-001	-2.905759954402150E+000	2.000000000000000E+000	1.6898036E-002	9	0	0.000000000000000E+000	-1.1406674E-003
2	1	0	1	0	1	2.437599938421045E+001	3.9376190E-001	3.9208874E-001	3.924293648720933E+000	2.000000000000000E+000	1.7031923E-002	9	0	0.000000000000000E+000	1.5386713E-003
2	0	0	1	0	1	2.442589938294987E+001	3.9426154E-001	3.9348227E-001	-2.883824034733607E+000	2.000000000000000E+000	1.6964689E-002	9	0	0.000000000000000E+000	-1.1347337E-003
2	1	0	1	0	1	2.447589938168676E+001	3.9476094E-001	3.9391786E-001	4.004045841990347E+000	2.000000000000000E+000	1.7074993E-002	9	0	0.000000000000000E+000	1.5772652E-003
2	0	0	1	0	1	2.452579938042618E+001	3.9525947E-001	3.9423195E-001	-3.626171173767823E+000	2.000000000000000E+000	1.6997885E-002	9	0	0.000000000000000E+000	-1.4295526E-003
2	1	0	1	0	1	2.457569937916560E+001	3.9575970E-001	3.9523101E-001	4.184545370691637E+000	2.000000000000000E+000	1.7079197E-002	9	0	0.000000000000000E+000	1.6538621E-003
2	0	0	1	0	1	2.462569937790249E+001	3.9625913E-001	3.9523101E-001	-3.613283731326817E+000	2.000000000000000E+000	1.7016793E-002	9	0	0.000000000000000E+000	-1.4280818E-003
2	1	0	1	0	1	2.467569937663939E+001	3.9675856E-001	3.9635548E-001	4.278163055866827E+000	2.000000000000000E+000	1.7080590E-002	9	0	0.000000000000000E+000	1.6956733E-003
2	0	0	1	0	1	2.472559937537881E+001	3.9725840E-001	3.9725438E-001	-2.653182959995480E+000	2.000000000000000E+000	1.7071163E-002	9	0	0.000000000000000E+000	-1.0539886E-003
2	1	0	1	0	1	2.477549937411823E+001	3.9775741E-001	3.9793780E-001	4.765154405780478E+000	2.000000000000000E+000	1.7168419E-002	9	0	0.000000000000000E+000	1.8962350E-003
2	0	0	1	0	1	2.482549937285512E+001	3.9825675E-001	3.9844120E-001	-1.160073405590624E+000	2.000000000000000E+000	1.7201243E-002	9	0	4.999999873689376E-002	-4.6222104E-004
2	1	0	1	0	1	2.487539937159454E+001	3.9875576E-001	3.9848366E-001	5.574464770059171E+000	2.000000000000000E+000	1.7379103E-002	9	0	9.989999747631373E-002	2.2213331E-003
2	0	0	1	0	1	2.492529937033396E+001	3.9925563E-001	3.9921382E-001	-3.222982414390758E+000	2.000000000000000E+000	1.7367097E-002	9	0	0.000000000000000E+000	-1.2866592E-003
2	1	0	1	0	1	2.497529936907085E+001	3.9975503E-001	3.9926577E-001	3.789541487640478E+000	2.000000000000000E+000	1.7412284E-002	9	0	0.000000000000000E+000	1.5130342E-003
2	0	0	1	0	1	2.502529936780775E+001	4.0025443E-001	3.9985925E-001	-2.576318460170238E+000	2.000000000000000E+000	1.7402356E-002	9	0	0.000000000000000E+000	-1.0301648E-003
2	1	0	1	0	1	2.507519936654717E+001	4.0075472E-001	4.0031409E-001	3.868896814585263E+000	2.000000000000000E+000	1.7466059E-002	9	0	0.000000000000000E+000	1.5487740E-003
2	0	0	1	0	1	2.512509936528659E+001	4.0125322E-001	4.0050998E-001	-2.568739496460068E+000	2.000000000000000E+000	1.7455366E-002	9	0	0.000000000000000E+000	-1.0288059E-003
2	1	0	1	0	1	2.517509936402348E+001	4.0175262E-001	4.0030649E-001	3.728743946350669E+000	2.000000000000000E+000	1.7496604E-002	9	0	0.000000000000000E+000	1.4926405E-003
2	0	0	1	0	1	2.522499936276290E+001	4.0225229E-001	4.0184110E-001	-2.356903105183870E+000	2.000000000000000E+000	1.7507004E-002	9	0	4.989999873941997E-002	-9.4710052E-004
2	1	0	1	0	1	2.527489936150232E+001	4.0275148E-001	4.0177119E-001	3.684671330675073E+000	2.000000000000000E+000	1.7546678E-002	9	0	9.979999747883994E-002	1.4803947E-003
2	0	0	1	0	1	2.532489936023921E+001	4.0325087E-001	4.0320295E-001	-2.239035387761895E+000	2.000000000000000E+000	1.7566321E-002	9	0	1.497999962157337E-001	-9.0278569E-004
2	1	0	1	0	1	2.537479935897863E+001	4.0374964E-001	4.0252790E-001	3.613492550297934E+000	2.000000000000000E+000	1.7592257E-002	9	0	1.996999949551537E-001	1.4545316E-003
2	0	0	1	0	1	2.542469935771805E+001	4.0424964E-001	4.0350190E-001	-1.991142949620368E+000	2.000000000000000E+000	1.7627420E-002	9	0	2.495999936945736E-001	-8.0342998E-004
2	1	0	1	0	1	2.547469935645495E+001	4.0474907E-001	4.0475461E-001	3.577465639022229E+000	2.000000000000000E+000	1.7649399E-002	9	0	2.995999924314674E-001	1.4479957E-003
2	0	0	1	0	1	2.552469935519184E+001	4.0524849E-001	4.0535763E-001	-1.974878517793929E+000	2.000000000000000E+000	1.7693166E-002	9	0	3.495999911683612E-001	-8.0053206E-004
2	1	0	1	0	1	2.557459935393126E+001	4.0574858E-001	4.0583593E-001	3.187574540950337E+000	2.000000000000000E+000	1.7703312E-002	9	0	3.994999899077811E-001	1.2936323E-003
2	0	0	1	0	1	2.562449935267068E+001	4.0624735E-001	4.0727594E-001	-1.862999520152048E+000	2.000000000000000E+000	1.7751316E-002	9	0	4.493999886472011E-001	-7.5875490E-004
2	1	0	1	0	1	2.567449935140758E+001	4.0674669E-001	4.0695795E-001	3.392076596113746E+000	2.000000000000000E+000	1.7754095E-002	9	0	4.993999873840949E-001	1.3804325E-003
2	0	0	1	0	1	2.572439935014700E+001	4.0724587E-001	4.0781727E-001	-1.469687909212890E+000	2.000000000000000E+000	1.7825497E-002	9	0	5.492999861235148E-001	-5.9936411E-004
2	1	0	1	0	1	2.577429934888642E+001	4.0774557E-001	4.0767232E-001	2.997394889449126E+000	2.000000000000000E+000	1.7811546E-002	9	0	0.000000000000000E+000	1.2219549E-003
2	0	0	1	0	1	2.582429934762331E+001	4.0824497E-001	4.0758538E-001	-1.581733873212954E+000	2.000000000000000E+000	1.7880727E-002	9	0	0.000000000000000E+000	-6.4469158E-004
2	1	0	1	0	1	2.587429934636020E+001	4.0874436E-001	4.0761083E-001	3.016332276633378E+000	2.000000000000000E+000	1.7862676E-002	9	0	0.000000000000000E+000	1.2294897E-003
2	0	0	1	0	1	2.592409934510215E+001	4.0924376E-001	4.0891439E-001	-1.221967220856149E+000	2.000000000000000E+000	1.7957602E-002	9	0	0.000000000000000E+000	-4.9968000E-004
2	1	0	1	0	1	2.597409934383904E+001	4.0974316E-001	4.0930757E-001	2.906452586397378E+000	2.000000000000000E+000	1.7935596E-002	9	0	0.000000000000000E+000	1.1896330E-003
2	0	0	1	0	1	2.602409934257594E+001	4.1024256E-001	4.0962023E-001	-1.469039986027074E+000	2.000000000000000E+000	1.8024564E-002	9	0	0.000000000000000E+000	-6.0174847E-004
2	1	0	1	0	1	2.607399934131536E+001	4.1074219E-001	4.1033202E-001	2.601988982642947E+000	2.000000000000000E+000	1.7982017E-002	9	0	0.000000000000000E+000	1.0676794E-003
2	0	0	1	0	1	2.612389934005478E+001	4.1124141E-001	4.1039392E-001	-1.120428583328279E+000	2.000000000000000E+000	1.8089946E-002	9	0	0.000000000000000E+000	-4.5981709E-004
2	1	0	1	0	1	2.617389933879167E+001	4.1174081E-001	4.1097149E-001	2.595395163637420E+000	2.000000000000000E+000	1.8049918E-002	9	0	0.000000000000000E+000	1.0666334E-003
2	0	0	1	0	1	2.622379933753109E+001	4.1223955E-001	4.1286266E-001	-1.078393834617284E+000	2.000000000000000E+000	1.8166726E-002	9	0	0.000000000000000E+000	-4.4522854E-004
2	1	0	1	0	1	2.627369933627051E+001	4.1273957E-001	4.1257820E-001	2.193564437725673E+000	2.000000000000000E+000	1.8102584E-002	9	0	0.000000000000000E+000	9.0501684E-004
2	0	0	1	0	1	2.632369933500740E+001	4.1323900E-001	4.1302016E-001	-9.376225707611745E-001	2.000000000000000E+000	1.8228406E-002	9	0	0.000000000000000E+000	-3.8725702E-004
2	1	0	1	0	1	2.637369933374430E+001	4.1373843E-001	4.1406727E-001	2.371267624523327E+000	2.000000000000000E+000	1.8171614E-002	9	0	0.000000000000000E+000	9.8186429E-004
2	0	0	1	0	1	2.642359933248372E+001	4.1423854E-001	4.1391042E-001	-7.800172499721612E-001	2.000000000000000E+000	1.8312074E-002	9	0	0.000000000000000E+000	-3.2285726E-004
2	1	0	1	0	1	2.647349933122314E+001	4.1473728E-001	4.1422415E-001	2.014462693895835E+000	2.000000000000000E+000	1.8236935E-002	9	0	0.000000000000000E+000	8.3443907E-004
2	0	0	1	0	1	2.652349932996003E+001	4.1523662E-001	4.1509321E-001	-7.795496685925949E-001	2.000000000000000E+000	1.8379461E-002	9	0	0.000000000000000E+000	-3.2358579E-004
2	1	0	1	0	1	2.657339932869945E+001	4.1573584E-001	4.1518191E-001	1.817785742595557E+000	2.000000000000000E+000	1.8299760E-002	9	0	0.000000000000000E+000	7.5471174E-004
2	0	0	1	0	1	2.662329932743887E+001	4.1623551E-001	4.1642222E-001	-4.240965162210752E-001	2.000000000000000E+000	1.8469455E-002	9	0	0.000000000000000E+000	-1.7660321E-004
2	1	0	1	0	1	2.667329932617577E+001	4.1673490E-001	4.1674015E-001	1.880863787327347E+000	2.000000000000000E+000	1.8387705E-002	9	0	0.000000000000000E+000	7.8383146E-004
2	0	0	1	0	1	2.672319932491519E+001	4.1723341E-001	4.1711947E-001	-4.010084388330668E-001	2.000000000000000E+000	1.8558610E-002	9	0	0.000000000000000E+000	-1.6726843E-004
2	1	0	1	0	1	2.677309932365461E+001	4.1773370E-001	4.1661301E-001	1.563887169395663E+000	2.000000000000000E+000	1.8456636E-002	9	0	0.000000000000000E+000	6.5153575E-004
2	0	0	1	0	1	2.682309932239150E+001	4.1823310E-001	4.1729346E-001	-1.531759768652143E-001	2.000000000000000E+000	1.8645389E-002	9	0	0.000000000000000E+000	-6.3919331E-005
2	1	0	1	0	1	2.687309932112839E+001	4.1873249E-001	4.1781059E-001	1.598643231507033E+000	2.000000000000000E+000	1.8550772E-002	9	0	0.000000000000000E+000	6.6793006E-004
2	0	0	1	0	1	2.692299931986781E+001	4.1923237E-001	4.1956824E-001	4.482251142102700E-002	2.000000000000000E+000	1.8738193E-002	9	0	0.000000000000000E+000	1.8806102E-005
2	1	0	1	0	1	2.696789931873354E+001	4.1968140E-001	4.1878107E-001	5.783833384421229E+000	2.000000000000000E+000	1.8598115E-002	9	0	0.000000000000000E+000	2.4221600E-003
2	0	0	1	0	1	2.698939931819041E+001	4.1990626E-001	4.1710383E-001	-4.741500070359972E+001	2.000000000000000E+000	1.8522587E-002	9	0	2.149999945686432E-002	-1.9776978E-002