EC-Lab ASCII FILE
Nb header lines : 66                          

Cyclic Voltammetry Advanced

Run on channel : 2 (SN 69290)
User : 
CE vs. WE compliance from -10 V to 10 V
Electrode connection : standard
Potential control : Ewe
Ewe ctrl range : min = -1.00 V, max = 1.00 V
Safety Limits :
	Do not start on E overload
Acquisition started on : 11/12/2025 20:20:55.800
Loaded Setting File :  C:\Users\User\Documents\EC-Lab\Data\Yatsuzuka\20251112_2-148_alpha_reproducibility\20251112_2-148_002_alpha_reproducibility_2_K1.mps
Saved on :
	File : 20251112_2-148_006_gamma_reproducibility_2_K2_01_CVA_C02.mpr
	Directory : C:\Users\User\Documents\EC-Lab\Data\Yatsuzuka\20251112_2-148_alpha_reproducibility\
	Host : 192.109.209.127
Device : SP-150e (SN .003883)
Address : 192.109.209.128
EC-Lab for windows v11.52 (software)
Internet server v11.52 (firmware)
Command interpretor v11.50 (firmware)
Electrode material : 
Initial state : 
Electrolyte : 
Comments : 
Electrode surface area : 0.001 cm2
Characteristic mass : 0.001 g
Equivalent Weight : 0.000 g/eq.
Density : 0.000 g/cm3
Volume (V) : 0.001 cm3
Cycle Definition : Charge/Discharge alternance
Ei (V)              0.350               
vs.                 Ref                 
ti (h:m:s)          0:00:10.0000        
dti (s)             0.0000              
dE/dt               10.000              
dE/dt unit          mV/s                
E1 (V)              0.450               
vs.                 Ref                 
t1 (h:m:s)          0:00:0.0000         
dt1 (s)             0.1000              
Step percent        50                  
N                   10                  
E range min (V)     -1.000              
E range max (V)     1.000               
I Range             Auto                
I Range min         Unset               
I Range max         Unset               
I Range init        Unset               
Bandwidth           5                   
E2 (V)              0.350               
vs.                 Ref                 
t2 (h:m:s)          0:00:0.0000         
dt2 (s)             0.1000              
nc cycles           9                   
nr                  1                   
Reverse Scan        0                   
Ef (V)              0.000               
vs.                 Eoc                 
tf (h:m:s)          0:00:0.0000         
dtf (s)             0.1000              

mode	ox/red	error	control changes	Ns changes	counter inc.	time/s	control/V	Ewe/V	<I>/mA	cycle number	(Q-Qo)/C	I Range	Ns	step time/s	P/W	
2	0	0	0	0	0	0.000000000000000E+000	3.4998915E-001	3.4884679E-001	-7.480647277832031E+001	1.000000000000000E+000	0.0000000E+000	9	0	0.000000000000000E+000	-2.6095998E-002
2	1	0	1	0	0	2.749999930529157E-002	3.5026368E-001	3.5006124E-001	3.538495452651645E+000	1.000000000000000E+000	6.3957923E-005	9	0	0.000000000000000E+000	1.2386901E-003
2	0	0	1	0	0	7.749999804218533E-002	3.5076308E-001	3.5134152E-001	-1.592172270379838E+000	1.000000000000000E+000	1.9423208E-004	9	0	4.999999873689376E-002	-5.5939623E-004
2	1	0	1	0	0	1.274999967790791E-001	3.5126251E-001	3.5216498E-001	3.586949375516518E+000	1.000000000000000E+000	1.5596242E-004	9	0	0.000000000000000E+000	1.2631980E-003
2	0	0	1	0	0	1.773999955184991E-001	3.5176262E-001	3.5164547E-001	-1.507035455373860E+000	1.000000000000000E+000	2.7973019E-004	9	0	0.000000000000000E+000	-5.2994222E-004
2	1	0	1	0	0	2.272999942579190E-001	3.5226133E-001	3.5186505E-001	3.590515514691624E+000	1.000000000000000E+000	2.3785300E-004	9	0	0.000000000000000E+000	1.2633769E-003
2	0	0	1	0	0	2.772999929948128E-001	3.5276073E-001	3.5157681E-001	-1.704235318490366E+000	1.000000000000000E+000	3.6471093E-004	9	0	0.000000000000000E+000	-5.9916958E-004
2	1	0	1	0	0	3.271999917342328E-001	3.5325989E-001	3.5233131E-001	3.577348945721264E+000	1.000000000000000E+000	3.2714859E-004	9	0	0.000000000000000E+000	1.2604120E-003
2	0	0	1	0	0	3.770999904736527E-001	3.5375953E-001	3.5311991E-001	-1.667481138150510E+000	1.000000000000000E+000	4.6364905E-004	9	0	0.000000000000000E+000	-5.8882078E-004
2	1	0	1	0	0	4.270999892105465E-001	3.5425895E-001	3.5314643E-001	3.781008775683375E+000	1.000000000000000E+000	4.1555639E-004	9	0	0.000000000000000E+000	1.3352497E-003
2	0	0	1	0	0	4.770999879474402E-001	3.5475835E-001	3.5402498E-001	-1.730615084010083E+000	1.000000000000000E+000	5.5536779E-004	9	0	0.000000000000000E+000	-6.1268097E-004
2	1	0	1	0	0	5.268999866893864E-001	3.5525781E-001	3.5498416E-001	3.538730901278228E+000	1.000000000000000E+000	4.9849576E-004	9	0	0.000000000000000E+000	1.2561934E-003
2	0	0	1	0	0	5.768999854262802E-001	3.5575721E-001	3.5620716E-001	-1.590711385155650E+000	1.000000000000000E+000	6.5263471E-004	9	0	0.000000000000000E+000	-5.6662277E-004
2	1	0	1	0	0	6.268999841631739E-001	3.5625654E-001	3.5666078E-001	3.393213826101160E+000	1.000000000000000E+000	5.8509840E-004	9	0	0.000000000000000E+000	1.2102263E-003
2	0	0	1	0	0	6.767999829025939E-001	3.5675621E-001	3.5667339E-001	-1.407536817767195E+000	1.000000000000000E+000	7.4562337E-004	9	0	0.000000000000000E+000	-5.0203095E-004
2	1	0	1	0	0	7.266999816420139E-001	3.5725543E-001	3.5757646E-001	3.115268235189370E+000	1.000000000000000E+000	6.7122054E-004	9	0	0.000000000000000E+000	1.1139465E-003
2	0	0	1	0	0	7.766999803789076E-001	3.5775483E-001	3.5753721E-001	-1.127315375203782E+000	1.000000000000000E+000	8.3729852E-004	9	0	0.000000000000000E+000	-4.0305720E-004
2	1	0	1	0	0	8.265999791183276E-001	3.5825378E-001	3.5767737E-001	2.962463606962167E+000	1.000000000000000E+000	7.7167555E-004	9	0	0.000000000000000E+000	1.0596062E-003
2	0	0	1	0	0	8.764999778577476E-001	3.5875362E-001	3.5881647E-001	-1.028872581927741E+000	1.000000000000000E+000	9.4178680E-004	9	0	0.000000000000000E+000	-3.6917644E-004
2	1	0	1	0	0	9.264999765946413E-001	3.5925302E-001	3.5856527E-001	2.551414991058479E+000	1.000000000000000E+000	8.6005346E-004	9	0	0.000000000000000E+000	9.1484882E-004
2	0	0	1	0	0	9.764999753315351E-001	3.5975245E-001	3.5985509E-001	-1.255642914685659E+000	1.000000000000000E+000	1.0094002E-003	9	0	0.000000000000000E+000	-4.5184948E-004
2	1	0	1	0	0	1.026399974070955E+000	3.6025277E-001	3.6016417E-001	3.888564357569815E+000	1.000000000000000E+000	9.6203591E-004	9	0	0.000000000000000E+000	1.4005215E-003
2	0	0	1	0	0	1.076299972810375E+000	3.6075127E-001	3.6110145E-001	-8.519680186170291E-001	1.000000000000000E+000	1.1477945E-003	9	0	0.000000000000000E+000	-3.0764687E-004
2	1	0	1	0	0	1.126299971547269E+000	3.6125067E-001	3.6095306E-001	3.698813088274228E+000	1.000000000000000E+000	1.1006272E-003	9	0	0.000000000000000E+000	1.3350979E-003
2	0	0	1	0	0	1.176199970286689E+000	3.6175007E-001	3.6093515E-001	-1.294439821035033E+000	1.000000000000000E+000	1.2806136E-003	9	0	0.000000000000000E+000	-4.6720883E-004
2	1	0	1	0	0	1.226099969026109E+000	3.6224946E-001	3.6063194E-001	3.177540873271845E+000	1.000000000000000E+000	1.2030656E-003	9	0	0.000000000000000E+000	1.1459227E-003
2	0	0	1	0	0	1.276099967763003E+000	3.6274889E-001	3.6186561E-001	-1.070561984958818E+000	1.000000000000000E+000	1.3893758E-003	9	0	0.000000000000000E+000	-3.8739957E-004
2	1	0	1	0	0	1.325999966502422E+000	3.6324742E-001	3.6185148E-001	3.213559703145997E+000	1.000000000000000E+000	1.3103557E-003	9	0	0.000000000000000E+000	1.1628313E-003
2	0	0	1	0	0	1.375899965241842E+000	3.6374775E-001	3.6314055E-001	-8.156436310299107E-001	1.000000000000000E+000	1.5101950E-003	9	0	0.000000000000000E+000	-2.9619329E-004
2	1	0	1	0	0	1.425899963978736E+000	3.6424714E-001	3.6347756E-001	2.982604838367834E+000	1.000000000000000E+000	1.4253757E-003	9	0	0.000000000000000E+000	1.0841099E-003
2	0	0	1	0	0	1.475899962715630E+000	3.6474654E-001	3.6487654E-001	-6.903746258377126E-001	1.000000000000000E+000	1.6274313E-003	9	0	0.000000000000000E+000	-2.5190151E-004
2	1	0	1	0	0	1.525799961455050E+000	3.6524659E-001	3.6523771E-001	2.550816577253403E+000	1.000000000000000E+000	1.5435287E-003	9	0	0.000000000000000E+000	9.3165442E-004
2	0	0	1	0	0	1.575699960194470E+000	3.6574537E-001	3.6667928E-001	-7.097443530813194E-001	1.000000000000000E+000	1.7429212E-003	9	0	0.000000000000000E+000	-2.6024855E-004
2	1	0	1	0	0	1.625699958931364E+000	3.6624479E-001	3.6652035E-001	2.560991312570584E+000	1.000000000000000E+000	1.6496478E-003	9	0	0.000000000000000E+000	9.3865540E-004
2	0	0	1	0	0	1.675599957670784E+000	3.6674395E-001	3.6695355E-001	-6.060720495960847E-001	1.000000000000000E+000	1.8456852E-003	9	0	0.000000000000000E+000	-2.2240030E-004
2	1	0	1	0	0	1.725499956410204E+000	3.6724356E-001	3.6609638E-001	2.680079727501090E+000	1.000000000000000E+000	1.7553020E-003	9	0	0.000000000000000E+000	9.8116742E-004
2	0	0	1	0	0	1.775499955147097E+000	3.6774299E-001	3.6760771E-001	-6.591237000221195E-001	1.000000000000000E+000	1.9578005E-003	9	0	0.000000000000000E+000	-2.4229895E-004
2	1	0	1	0	0	1.825499953883991E+000	3.6824238E-001	3.6798504E-001	2.624723875868131E+000	1.000000000000000E+000	1.8707518E-003	9	0	0.000000000000000E+000	9.6585910E-004
2	0	0	1	0	0	1.875299952625937E+000	3.6874181E-001	3.6854041E-001	-9.344358734834355E-001	1.000000000000000E+000	2.0590157E-003	9	0	0.000000000000000E+000	-3.4437739E-004
2	1	0	1	0	0	1.925299951362831E+000	3.6924121E-001	3.6823937E-001	2.964865240245903E+000	1.000000000000000E+000	1.9687952E-003	9	0	0.000000000000000E+000	1.0917801E-003
2	0	0	1	0	0	1.975299950099725E+000	3.6974061E-001	3.6981213E-001	-7.108825148772713E-001	1.000000000000000E+000	2.1801698E-003	9	0	0.000000000000000E+000	-2.6289298E-004
2	1	0	1	0	0	2.025199948839145E+000	3.7024024E-001	3.6937219E-001	2.871564782916721E+000	1.000000000000000E+000	2.0923933E-003	9	0	0.000000000000000E+000	1.0606762E-003
2	0	0	1	0	0	2.075099947578565E+000	3.7073940E-001	3.7005594E-001	-4.611909476599418E-001	1.000000000000000E+000	2.3182307E-003	9	0	0.000000000000000E+000	-1.7066645E-004
2	1	0	1	0	0	2.125099946315459E+000	3.7123883E-001	3.7007707E-001	2.681816172628537E+000	1.000000000000000E+000	2.2207468E-003	9	0	0.000000000000000E+000	9.9247869E-004
2	0	0	1	0	0	2.174999945054878E+000	3.7173778E-001	3.7172940E-001	2.792969725641254E-002	1.000000000000000E+000	2.4527539E-003	9	0	0.000000000000000E+000	1.0382289E-005
2	1	0	1	0	0	2.224899943794298E+000	3.7223768E-001	3.7178025E-001	2.474521866743105E+000	1.000000000000000E+000	2.3518128E-003	9	0	0.000000000000000E+000	9.1997837E-004
2	0	0	1	0	0	2.274899942531192E+000	3.7273708E-001	3.7243098E-001	-1.247840247023013E-001	1.000000000000000E+000	2.5861440E-003	9	0	0.000000000000000E+000	-4.6473437E-005
2	1	0	1	0	0	2.324899941268086E+000	3.7323648E-001	3.7335935E-001	2.683339306985665E+000	1.000000000000000E+000	2.5003650E-003	9	0	0.000000000000000E+000	1.0018498E-003
2	0	0	1	0	0	2.374799940007506E+000	3.7373677E-001	3.7352166E-001	-3.826410624047938E-001	1.000000000000000E+000	2.7254079E-003	9	0	0.000000000000000E+000	-1.4292472E-004
2	1	0	1	0	0	2.424699938746926E+000	3.7423530E-001	3.7325761E-001	2.528140996029391E+000	1.000000000000000E+000	2.6324245E-003	9	0	0.000000000000000E+000	9.4364787E-004
2	0	0	1	0	0	2.474699937483820E+000	3.7473473E-001	3.7417123E-001	-5.781736474682786E-001	1.000000000000000E+000	2.8472852E-003	9	0	0.000000000000000E+000	-2.1633595E-004
2	1	0	1	0	0	2.524599936223240E+000	3.7523413E-001	3.7481943E-001	2.779135393733924E+000	1.000000000000000E+000	2.7472929E-003	9	0	0.000000000000000E+000	1.0416739E-003
2	0	0	1	0	0	2.574499934962660E+000	3.7573349E-001	3.7545043E-001	-5.392662305474465E-001	1.000000000000000E+000	2.9709563E-003	9	0	0.000000000000000E+000	-2.0246774E-004
2	1	0	1	0	0	2.624499933699553E+000	3.7623292E-001	3.7596765E-001	2.528248811329618E+000	1.000000000000000E+000	2.8613009E-003	9	0	0.000000000000000E+000	9.5053978E-004
2	0	0	1	0	0	2.674399932438973E+000	3.7673143E-001	3.7647456E-001	-4.227434820329687E-001	1.000000000000000E+000	3.0947605E-003	9	0	0.000000000000000E+000	-1.5915217E-004
2	1	0	1	0	0	2.724299931178393E+000	3.7723175E-001	3.7703383E-001	2.092414794336769E+000	1.000000000000000E+000	2.9692405E-003	9	0	0.000000000000000E+000	7.8891119E-004
2	0	0	1	0	0	2.774299929915287E+000	3.7773114E-001	3.7799400E-001	-5.433553924451209E-001	1.000000000000000E+000	3.1995471E-003	9	0	0.000000000000000E+000	-2.0538508E-004
2	1	0	1	0	0	2.824299928652181E+000	3.7823054E-001	3.7791026E-001	1.236364944608543E+000	1.000000000000000E+000	3.0484016E-003	9	0	0.000000000000000E+000	4.6723499E-004
2	0	0	1	0	0	2.874199927391601E+000	3.7873042E-001	3.7813196E-001	-2.564361378862715E-001	1.000000000000000E+000	3.2572008E-003	9	0	0.000000000000000E+000	-9.6966702E-005
2	1	0	1	0	0	2.924099926131021E+000	3.7922934E-001	3.7834483E-001	2.146294036565131E+000	1.000000000000000E+000	3.1312462E-003	9	0	0.000000000000000E+000	8.1203924E-004
2	0	0	1	0	0	2.974099924867915E+000	3.7972876E-001	3.7843278E-001	2.680986193930937E-001	1.000000000000000E+000	3.3777212E-003	9	0	0.000000000000000E+000	1.0145731E-004
2	1	0	1	0	0	3.023999923607334E+000	3.8022774E-001	3.7996274E-001	2.351896275328647E+000	1.000000000000000E+000	3.2888141E-003	9	0	0.000000000000000E+000	8.9363294E-004
2	0	0	1	0	0	3.073899922346754E+000	3.8072762E-001	3.7996843E-001	-9.895859424762055E-002	1.000000000000000E+000	3.5302171E-003	9	0	0.000000000000000E+000	-3.7601141E-005
2	1	0	1	0	0	3.123899921083648E+000	3.8122702E-001	3.8111305E-001	2.297894742609794E+000	1.000000000000000E+000	3.4211462E-003	9	0	0.000000000000000E+000	8.7575766E-004
2	0	0	1	0	0	3.173899919820542E+000	3.8172641E-001	3.8112685E-001	2.735716982109944E-001	1.000000000000000E+000	3.6676691E-003	9	0	0.000000000000000E+000	1.0426552E-004
2	1	0	1	0	0	3.223699918562488E+000	3.8222581E-001	3.8173732E-001	4.332080438582594E+000	1.000000000000000E+000	3.6195954E-003	9	0	0.000000000000000E+000	1.6537168E-003
2	0	0	1	0	0	3.273699917299382E+000	3.8272524E-001	3.8294867E-001	2.380472004485583E-001	1.000000000000000E+000	3.9131469E-003	9	0	0.000000000000000E+000	9.1159854E-005
2	1	0	1	0	0	3.323699916036276E+000	3.8322467E-001	3.8290951E-001	5.168381487761131E-001	1.000000000000000E+000	3.7597234E-003	9	0	0.000000000000000E+000	1.9790223E-004
2	0	0	1	0	0	3.373599914775696E+000	3.8372430E-001	3.8446480E-001	-4.383309714762103E-001	1.000000000000000E+000	3.9678896E-003	9	0	0.000000000000000E+000	-1.6852283E-004
2	1	0	1	0	0	3.423499913515116E+000	3.8422343E-001	3.8420564E-001	1.198951867610654E-001	1.000000000000000E+000	3.7787538E-003	9	0	0.000000000000000E+000	4.6064408E-005
2	0	0	1	0	0	3.473499912252009E+000	3.8472286E-001	3.8471967E-001	-5.597263602674851E-001	1.000000000000000E+000	3.9807931E-003	9	0	0.000000000000000E+000	-2.1533774E-004
2	1	0	1	0	0	3.523399910991429E+000	3.8522160E-001	3.8501567E-001	1.441386280631612E+000	1.000000000000000E+000	3.8258268E-003	9	0	0.000000000000000E+000	5.5495632E-004
2	0	0	1	0	0	3.573299909730849E+000	3.8572168E-001	3.8556647E-001	-2.566782903052083E-001	1.000000000000000E+000	4.0507754E-003	9	0	0.000000000000000E+000	-9.8966542E-005
2	1	0	1	0	0	3.623299908467743E+000	3.8622108E-001	3.8484684E-001	3.029044492233211E+000	1.000000000000000E+000	3.9515533E-003	9	0	0.000000000000000E+000	1.1657182E-003
2	0	0	1	0	0	3.673299907204637E+000	3.8672048E-001	3.8615146E-001	1.717439964357400E+000	1.000000000000000E+000	4.2544696E-003	9	0	0.000000000000000E+000	6.6319195E-004
2	1	0	1	0	0	3.723199905944057E+000	3.8722056E-001	3.8629499E-001	2.006052440238147E+000	1.000000000000000E+000	4.1862321E-003	9	0	0.000000000000000E+000	7.7492802E-004
2	0	0	1	0	0	3.773099904683477E+000	3.8771927E-001	3.8701415E-001	-5.414488445158288E-001	1.000000000000000E+000	4.4187256E-003	9	0	0.000000000000000E+000	-2.0954837E-004
2	1	0	1	0	0	3.823099903420371E+000	3.8821867E-001	3.8743600E-001	3.390953528996215E+000	1.000000000000000E+000	4.2945584E-003	9	0	0.000000000000000E+000	1.3137775E-003
2	0	0	1	0	0	3.872999902159791E+000	3.8871813E-001	3.8830206E-001	1.780090448088234E+000	1.000000000000000E+000	4.6214606E-003	9	0	0.000000000000000E+000	6.9121277E-004
2	1	0	1	0	0	3.922899900899210E+000	3.8921756E-001	3.8907343E-001	6.663887615401038E+000	1.000000000000000E+000	4.6731583E-003	9	0	4.989999873941997E-002	2.5927415E-003
2	1	0	1	0	0	3.972899899636104E+000	3.8971695E-001	3.8947827E-001	5.535013783668212E-001	1.000000000000000E+000	5.0372565E-003	9	0	9.989999747631373E-002	2.1557676E-004
2	1	0	1	0	0	4.022799898375524E+000	3.9021543E-001	3.9056170E-001	4.152231796880180E+000	1.000000000000000E+000	4.9746688E-003	9	0	0.000000000000000E+000	1.6217027E-003
2	0	0	1	0	0	4.072699897114944E+000	3.9071575E-001	3.9074481E-001	-2.653015457129770E-001	1.000000000000000E+000	5.2568722E-003	9	0	0.000000000000000E+000	-1.0366520E-004
2	1	0	1	0	0	4.122699895851838E+000	3.9121515E-001	3.9109769E-001	1.573202329485270E+000	1.000000000000000E+000	5.1100282E-003	9	0	0.000000000000000E+000	6.1527581E-004
2	0	0	1	0	0	4.172699894588732E+000	3.9171457E-001	3.9142838E-001	-1.192600866014832E+000	1.000000000000000E+000	5.3153127E-003	9	0	0.000000000000000E+000	-4.6681782E-004
2	1	0	1	0	0	4.222599893328152E+000	3.9221442E-001	3.9171994E-001	1.602992823731558E+000	1.000000000000000E+000	5.1384061E-003	9	0	0.000000000000000E+000	6.2792422E-004
2	1	0	1	0	0	4.272499892067572E+000	3.9271337E-001	3.9326397E-001	-7.173219445175913E-001	1.000000000000000E+000	5.3843381E-003	9	0	0.000000000000000E+000	-2.8209688E-004
2	1	0	1	0	0	4.322499890804465E+000	3.9321277E-001	3.9281672E-001	2.382889207146540E+000	1.000000000000000E+000	5.2494104E-003	9	0	0.000000000000000E+000	9.3603873E-004
2	0	0	1	0	0	4.372399889543885E+000	3.9371172E-001	3.9337736E-001	9.917089782026656E-002	1.000000000000000E+000	5.4935012E-003	9	0	0.000000000000000E+000	3.9011586E-005
2	1	0	1	0	0	4.422299888283305E+000	3.9421159E-001	3.9359882E-001	3.861928957635858E+000	1.000000000000000E+000	5.4218075E-003	9	0	0.000000000000000E+000	1.5200507E-003
2	1	0	1	0	0	4.472299887020199E+000	3.9471102E-001	3.9559558E-001	3.197049029459308E+000	1.000000000000000E+000	5.7911333E-003	9	0	0.000000000000000E+000	1.2647385E-003
2	1	0	1	0	0	4.522299885757093E+000	3.9521042E-001	3.9498931E-001	6.263779216936388E+000	1.000000000000000E+000	5.8645154E-003	9	0	4.999999873689376E-002	2.4741259E-003
2	1	0	1	0	0	4.572099884499039E+000	3.9570978E-001	3.9435771E-001	-9.556319200084085E-002	1.000000000000000E+000	6.1894720E-003	9	0	9.979999747883994E-002	-3.7686081E-005
2	1	0	1	0	0	4.622099883235933E+000	3.9620921E-001	3.9449656E-001	1.848289054445004E+000	1.000000000000000E+000	6.0541765E-003	9	0	0.000000000000000E+000	7.2914368E-004
2	0	0	1	0	0	4.672099881972827E+000	3.9670861E-001	3.9610535E-001	6.002321213771480E-001	1.000000000000000E+000	6.3163722E-003	9	0	0.000000000000000E+000	2.3775516E-004
2	1	0	1	0	0	4.721999880712247E+000	3.9720827E-001	3.9689997E-001	1.734740857849161E+000	1.000000000000000E+000	6.2005511E-003	9	0	0.000000000000000E+000	6.8851857E-004
2	0	0	1	0	0	4.771899879451666E+000	3.9770749E-001	3.9837021E-001	6.957552071642503E-001	1.000000000000000E+000	6.4636269E-003	9	0	0.000000000000000E+000	2.7716815E-004
2	1	0	1	0	0	4.821899878188560E+000	3.9820683E-001	3.9879942E-001	1.610940281571644E+000	1.000000000000000E+000	6.3458257E-003	9	0	0.000000000000000E+000	6.4244203E-004
2	0	0	1	0	0	4.871799876927980E+000	3.9870560E-001	3.9850071E-001	5.278430420198426E-001	1.000000000000000E+000	6.5978407E-003	9	0	0.000000000000000E+000	2.1034582E-004
2	1	0	1	0	0	4.921699875667400E+000	3.9920568E-001	3.9827693E-001	1.680547482293513E+000	1.000000000000000E+000	6.4820750E-003	9	0	0.000000000000000E+000	6.6932326E-004
2	0	0	1	0	0	4.971699874404294E+000	3.9970508E-001	3.9999494E-001	4.194700582591508E-001	1.000000000000000E+000	6.7283595E-003	9	0	0.000000000000000E+000	1.6778590E-004
2	1	0	1	0	0	5.021699873141188E+000	4.0020451E-001	3.9982963E-001	2.101269199112366E+000	1.000000000000000E+000	6.6237277E-003	9	0	0.000000000000000E+000	8.4014970E-004
2	0	0	1	0	0	5.071599871880608E+000	4.0070459E-001	4.0051305E-001	2.293615851265400E-001	1.000000000000000E+000	6.8684951E-003	9	0	0.000000000000000E+000	9.1862312E-005
2	1	0	1	0	0	5.121499870620028E+000	4.0120330E-001	4.0033406E-001	1.889470857626542E+000	1.000000000000000E+000	6.7489874E-003	9	0	0.000000000000000E+000	7.5641955E-004
2	0	0	1	0	0	5.171499869356921E+000	4.0170270E-001	4.0123916E-001	3.503874945049574E-001	1.000000000000000E+000	7.0032519E-003	9	0	0.000000000000000E+000	1.4058918E-004
2	1	0	1	0	0	5.221399868096341E+000	4.0220210E-001	4.0206331E-001	1.990764690532821E+000	1.000000000000000E+000	6.8802256E-003	9	0	0.000000000000000E+000	8.0041343E-004
2	1	0	1	0	0	5.271299866835761E+000	4.0270153E-001	4.0246642E-001	6.917581980066476E-001	1.000000000000000E+000	7.1495562E-003	9	0	0.000000000000000E+000	2.7840945E-004
2	1	0	1	0	0	5.321299865572655E+000	4.0320095E-001	4.0185490E-001	1.724987682081000E+000	1.000000000000000E+000	7.0274640E-003	9	0	0.000000000000000E+000	6.9319474E-004
2	0	0	1	0	0	5.371199864312075E+000	4.0369946E-001	4.0320510E-001	7.619343869541320E-001	1.000000000000000E+000	7.2964593E-003	9	0	0.000000000000000E+000	3.0721581E-004
2	1	0	1	0	0	5.421099863051495E+000	4.0419972E-001	4.0236154E-001	1.657872279116120E+000	1.000000000000000E+000	7.1764803E-003	9	0	0.000000000000000E+000	6.6706404E-004
2	0	0	1	0	0	5.471099861788389E+000	4.0469915E-001	4.0322208E-001	8.119237107642938E-001	1.000000000000000E+000	7.4453265E-003	9	0	0.000000000000000E+000	3.2738558E-004
2	1	0	1	0	0	5.521099860525283E+000	4.0519854E-001	4.0372446E-001	1.955710363920694E+000	1.000000000000000E+000	7.3391083E-003	9	0	0.000000000000000E+000	7.8956812E-004
2	0	0	1	0	0	5.570999859264703E+000	4.0569842E-001	4.0489775E-001	7.739948851868839E-001	1.000000000000000E+000	7.5975913E-003	9	0	0.000000000000000E+000	3.1338879E-004
2	1	0	1	0	0	5.620899858004123E+000	4.0619743E-001	4.0596807E-001	2.018259571298316E+000	1.000000000000000E+000	7.4886763E-003	9	0	0.000000000000000E+000	8.1934896E-004
2	0	0	1	0	0	5.670899856741016E+000	4.0669677E-001	4.0723670E-001	5.032947580307559E-001	1.000000000000000E+000	7.7488231E-003	9	0	0.000000000000000E+000	2.0496009E-004
2	1	0	1	0	0	5.720799855480436E+000	4.0719575E-001	4.0650329E-001	1.865445471044533E+000	1.000000000000000E+000	7.6367664E-003	9	0	0.000000000000000E+000	7.5830973E-004
2	1	0	1	0	0	5.770699854219856E+000	4.0769562E-001	4.0756103E-001	6.837951989060969E-001	1.000000000000000E+000	7.9072677E-003	9	0	0.000000000000000E+000	2.7868827E-004
2	1	0	1	0	0	5.820699852956750E+000	4.0819502E-001	4.0709889E-001	1.905858335143691E+000	1.000000000000000E+000	7.7911806E-003	9	0	0.000000000000000E+000	7.7587279E-004
2	0	0	1	0	0	5.870699851693644E+000	4.0869445E-001	4.0766171E-001	7.268842647148368E-001	1.000000000000000E+000	8.0616288E-003	9	0	0.000000000000000E+000	2.9632289E-004
2	1	0	1	0	0	5.920599850433064E+000	4.0919471E-001	4.0820560E-001	1.963599079595305E+000	1.000000000000000E+000	7.9432633E-003	9	0	0.000000000000000E+000	8.0155215E-004
2	1	0	1	0	0	5.970499849172484E+000	4.0969324E-001	4.0965098E-001	9.706568635531756E-001	1.000000000000000E+000	8.2211671E-003	9	0	0.000000000000000E+000	3.9763053E-004
2	1	0	1	0	0	6.020499847909377E+000	4.1019264E-001	4.0890488E-001	1.741175359645787E+000	1.000000000000000E+000	8.1078215E-003	9	0	0.000000000000000E+000	7.1197510E-004
2	0	0	1	0	0	6.070399846648797E+000	4.1069204E-001	4.0981922E-001	8.221688558163951E-001	1.000000000000000E+000	8.3776331E-003	9	0	0.000000000000000E+000	3.3694060E-004
2	0	0	1	0	0	6.120299845388217E+000	4.1119146E-001	4.1061124E-001	1.585270219594868E+000	1.000000000000000E+000	8.2649067E-003	9	0	0.000000000000000E+000	6.5092975E-004
2	0	0	1	0	0	6.170299844125111E+000	4.1169089E-001	4.1217867E-001	8.480479641668275E-001	1.000000000000000E+000	8.5271979E-003	9	0	0.000000000000000E+000	3.4954728E-004
2	1	0	1	0	0	6.220199842864531E+000	4.1218942E-001	4.1119501E-001	1.936902222335590E+000	1.000000000000000E+000	8.4212907E-003	9	0	0.000000000000000E+000	7.9644454E-004
2	1	0	1	0	0	6.270099841603951E+000	4.1268966E-001	4.1023499E-001	8.734887101403501E-001	1.000000000000000E+000	8.6886026E-003	9	0	0.000000000000000E+000	3.5833564E-004
2	1	0	1	0	0	6.320099840340845E+000	4.1318908E-001	4.1152900E-001	2.100516807035918E+000	1.000000000000000E+000	8.5856980E-003	9	0	0.000000000000000E+000	8.6442358E-004
2	0	0	1	0	0	6.370099839077739E+000	4.1368848E-001	4.1323960E-001	7.330476980709619E-001	1.000000000000000E+000	8.8574840E-003	9	0	0.000000000000000E+000	3.0292434E-004
2	1	0	1	0	0	6.419999837817159E+000	4.1418836E-001	4.1359165E-001	1.828987032066305E+000	1.000000000000000E+000	8.7470943E-003	9	0	0.000000000000000E+000	7.5645378E-004
2	1	0	1	0	0	6.459899836809200E+000	4.1458750E-001	4.1426706E-001	5.248803038312015E-001	1.000000000000000E+000	9.0197138E-003	9	0	0.000000000000000E+000	2.1744063E-004
2	0	0	1	0	0	6.475799836407532E+000	4.1476238E-001	4.1344106E-001	-6.025515518188490E+001	1.000000000000000E+000	8.7518580E-003	9	0	0.000000000000000E+000	-2.4911955E-002