"wavelength (nm)",0,50,100,150,200,250,300,350,400,450,500,550,600,650,700,0_r
300,2.046172,2.070227,2.054075,2.073485,2.066364,2.105047,2.077814,2.074125,2.076787,2.07363,2.080749,2.057852,2.104186,2.093186,2.053681,2.082912
301,2.029927,2.015822,2.025729,2.033077,2.015065,2.017397,2.035655,2.045651,2.026756,2.044864,2.032407,2.029701,2.04623,2.030707,2.042136,2.04424
302,2.000571,1.981144,1.986576,1.992989,1.994203,1.991129,1.97833,1.999624,1.993001,1.992858,1.99638,2.013757,1.999092,1.987054,1.997797,1.972778
303,1.94875,1.969383,1.947789,1.938756,1.978023,1.939981,1.952406,1.949017,1.96022,1.952897,1.952322,1.945566,1.946114,1.961196,1.967031,1.963448
304,1.908516,1.922071,1.912722,1.916574,1.909258,1.903454,1.925767,1.92451,1.913451,1.941226,1.931359,1.914595,1.923944,1.898223,1.915909,1.911008
305,1.883185,1.882824,1.862892,1.881611,1.890526,1.888296,1.890812,1.886976,1.882136,1.88603,1.887681,1.881653,1.877321,1.892562,1.884094,1.889445
306,1.84804,1.836571,1.864072,1.86425,1.863563,1.859828,1.85593,1.849569,1.842491,1.85253,1.858041,1.846299,1.861506,1.838237,1.834789,1.850989
307,1.821631,1.815964,1.816146,1.834971,1.816968,1.813957,1.812404,1.827987,1.820229,1.805496,1.83561,1.803083,1.798739,1.818516,1.82028,1.816049
308,1.793375,1.776438,1.784332,1.788423,1.782491,1.763054,1.768632,1.789039,1.773515,1.770629,1.778884,1.792111,1.785184,1.777948,1.776485,1.789091
309,1.761898,1.764495,1.753292,1.752887,1.763268,1.763586,1.75751,1.759064,1.754131,1.751786,1.746532,1.762487,1.76788,1.753295,1.777675,1.771784
310,1.720724,1.737562,1.730884,1.728266,1.735049,1.729755,1.74148,1.752622,1.726558,1.750014,1.724656,1.744833,1.729472,1.751199,1.746232,1.736237
311,1.700401,1.706662,1.69245,1.711708,1.707867,1.711525,1.709809,1.724997,1.70992,1.710436,1.705084,1.706946,1.729744,1.695726,1.710181,1.723281
312,1.692822,1.697232,1.681016,1.674511,1.685587,1.698469,1.689469,1.694894,1.688304,1.691845,1.694637,1.700115,1.694718,1.689099,1.690653,1.68956
313,1.660798,1.674454,1.649216,1.674104,1.678278,1.664731,1.671039,1.671222,1.666467,1.677073,1.669827,1.675168,1.661443,1.669332,1.665879,1.678201
314,1.664147,1.64889,1.652744,1.662213,1.65704,1.647746,1.644454,1.651408,1.668267,1.663365,1.657048,1.645307,1.660109,1.652729,1.664186,1.664583
315,1.641477,1.632032,1.62558,1.62208,1.624285,1.645954,1.637446,1.632585,1.641782,1.631073,1.627284,1.642103,1.646245,1.633036,1.641513,1.631118
316,1.618642,1.614331,1.606871,1.60544,1.600312,1.609679,1.617997,1.616615,1.59955,1.607109,1.611606,1.608284,1.604073,1.616601,1.608141,1.609175
317,1.590138,1.584927,1.580579,1.593601,1.585229,1.589118,1.589259,1.593598,1.596807,1.585962,1.588357,1.602137,1.600654,1.589782,1.599174,1.584575
318,1.580041,1.575854,1.567442,1.577533,1.573374,1.585092,1.579021,1.582832,1.571154,1.586955,1.569337,1.570798,1.578629,1.591226,1.58313,1.577577
319,1.566782,1.558789,1.56283,1.558427,1.563797,1.554282,1.560208,1.562865,1.568858,1.562358,1.569233,1.567855,1.561464,1.570394,1.568295,1.558547
320,1.548432,1.556518,1.550952,1.557976,1.54762,1.557059,1.541242,1.554598,1.55761,1.552494,1.553345,1.549992,1.549093,1.552737,1.551243,1.548272
321,1.53315,1.533181,1.531806,1.539889,1.53411,1.540993,1.535317,1.538914,1.540079,1.543932,1.532579,1.53769,1.544511,1.534637,1.542253,1.536231
322,1.5244,1.520116,1.515089,1.518147,1.518439,1.515215,1.532221,1.529779,1.516266,1.518472,1.527767,1.520885,1.52885,1.525449,1.528254,1.520188
323,1.495196,1.501344,1.491385,1.49887,1.500823,1.498938,1.50001,1.500898,1.496999,1.489224,1.505804,1.497341,1.50835,1.502222,1.50071,1.496385
324,1.481688,1.477267,1.483659,1.480788,1.487529,1.487791,1.486079,1.483989,1.490502,1.48744,1.485454,1.484648,1.474049,1.482418,1.484047,1.479811
325,1.464652,1.475394,1.465343,1.472883,1.472478,1.473888,1.476008,1.47326,1.470573,1.469744,1.473606,1.476942,1.478944,1.476208,1.479681,1.478378
326,1.461686,1.466381,1.450885,1.450046,1.458496,1.463454,1.462009,1.455265,1.460997,1.455565,1.460557,1.451234,1.461049,1.460633,1.459921,1.458227
327,1.445623,1.447417,1.438775,1.437251,1.438781,1.438799,1.44079,1.447764,1.445496,1.442533,1.443255,1.447251,1.445867,1.445953,1.441875,1.442818
328,1.430724,1.428668,1.431161,1.428406,1.432185,1.441163,1.435225,1.434859,1.431384,1.429721,1.432612,1.430335,1.44245,1.437281,1.433619,1.433253
329,1.421661,1.418472,1.417838,1.425966,1.416507,1.418837,1.418646,1.41862,1.422999,1.420979,1.418306,1.42451,1.428702,1.416628,1.423799,1.422366
330,1.411342,1.407957,1.408468,1.407904,1.407708,1.411517,1.414084,1.399125,1.410546,1.410852,1.409245,1.404544,1.400575,1.413789,1.416181,1.403948
331,1.386431,1.387021,1.390448,1.391505,1.384768,1.386757,1.390599,1.390347,1.395093,1.38767,1.388189,1.388714,1.391971,1.392598,1.397855,1.392169
332,1.382151,1.378203,1.378239,1.382496,1.377948,1.37706,1.378177,1.380502,1.3818,1.379834,1.375711,1.389734,1.389209,1.378686,1.379911,1.384632
333,1.369222,1.368138,1.372477,1.373942,1.36978,1.363841,1.368945,1.372146,1.372225,1.377214,1.371706,1.370653,1.374508,1.377605,1.371101,1.377236
334,1.360774,1.363103,1.359296,1.359713,1.365768,1.365595,1.356498,1.3651,1.374124,1.363308,1.365411,1.361675,1.368323,1.368243,1.36448,1.357444
335,1.350041,1.35758,1.350997,1.35,1.357272,1.354213,1.35393,1.351738,1.356009,1.354366,1.354108,1.356771,1.358672,1.360447,1.36031,1.35728
336,1.351919,1.343486,1.342145,1.347063,1.347493,1.348579,1.341514,1.344359,1.346182,1.348716,1.351798,1.349818,1.353709,1.35282,1.348558,1.349808
337,1.34114,1.338579,1.339213,1.34388,1.339839,1.343431,1.339045,1.338856,1.341766,1.343656,1.346213,1.347364,1.341912,1.341673,1.339737,1.341932
338,1.337696,1.334251,1.332378,1.337849,1.334544,1.331414,1.339548,1.337143,1.342237,1.332376,1.343744,1.344324,1.332906,1.331845,1.342294,1.337464
339,1.332914,1.327187,1.331212,1.33028,1.33991,1.329687,1.331948,1.3273,1.331295,1.333926,1.332492,1.329523,1.330348,1.33584,1.330248,1.330782
340,1.326757,1.318704,1.325586,1.328777,1.325388,1.325752,1.325121,1.330523,1.328941,1.330471,1.329149,1.331921,1.32544,1.330701,1.32764,1.329139
341,1.324199,1.320191,1.327242,1.323827,1.323023,1.324337,1.323029,1.328325,1.327572,1.32343,1.325779,1.323118,1.325823,1.328787,1.328923,1.323637
342,1.322392,1.318111,1.324459,1.314506,1.317367,1.318519,1.323882,1.318548,1.32068,1.319518,1.318988,1.323603,1.319876,1.32441,1.324922,1.321173
343,1.319259,1.314939,1.320655,1.319981,1.321104,1.312189,1.318668,1.323005,1.320236,1.320972,1.324532,1.320349,1.322442,1.322358,1.323669,1.317745
344,1.314569,1.315843,1.31223,1.31628,1.311622,1.316514,1.315672,1.311931,1.316763,1.31649,1.31843,1.319267,1.312394,1.314829,1.31541,1.317037
345,1.313475,1.3154,1.313785,1.311052,1.315323,1.310846,1.315304,1.317884,1.316509,1.315687,1.316986,1.31722,1.316345,1.317553,1.3176,1.31714
346,1.310436,1.308089,1.309067,1.308113,1.306192,1.311926,1.30994,1.310526,1.309925,1.311602,1.313156,1.314505,1.314376,1.309451,1.314045,1.309206
347,1.312773,1.313952,1.309892,1.308037,1.304916,1.30839,1.307166,1.312252,1.310279,1.310562,1.314898,1.315114,1.310506,1.316599,1.314287,1.310337
348,1.298306,1.305003,1.305313,1.30249,1.300243,1.304902,1.305728,1.301007,1.311118,1.305619,1.305545,1.310066,1.308046,1.304515,1.302974,1.303047
349,1.305487,1.301324,1.298633,1.301584,1.301449,1.298177,1.303531,1.302313,1.303529,1.302244,1.302619,1.303274,1.301777,1.301653,1.300789,1.301775
350,1.297676,1.301427,1.296998,1.295693,1.301587,1.300903,1.299896,1.30305,1.301774,1.298766,1.301815,1.2982,1.301869,1.304674,1.302874,1.300913
351,1.297443,1.288596,1.293038,1.291793,1.294077,1.298638,1.293618,1.298023,1.292,1.296266,1.295034,1.297055,1.292481,1.296431,1.297848,1.295777
352,1.288368,1.287774,1.290517,1.290405,1.289399,1.292663,1.288765,1.293781,1.288315,1.287106,1.291936,1.291805,1.29239,1.287993,1.29346,1.291202
353,1.290262,1.288502,1.290322,1.289343,1.289737,1.289718,1.292262,1.287894,1.286474,1.286993,1.288052,1.288009,1.28568,1.290375,1.287804,1.294519
354,1.289171,1.282462,1.285721,1.28596,1.280522,1.281875,1.285449,1.279018,1.287874,1.28641,1.285017,1.28342,1.286784,1.28549,1.288915,1.287687
355,1.279104,1.275931,1.281996,1.27863,1.279221,1.283398,1.278759,1.278031,1.283785,1.276899,1.279718,1.279194,1.280028,1.280588,1.278061,1.285284
356,1.271072,1.270718,1.269033,1.271443,1.26955,1.270738,1.268758,1.268609,1.275802,1.27253,1.272085,1.272742,1.273306,1.268156,1.268113,1.273978
357,1.268149,1.265018,1.264948,1.265869,1.268724,1.269084,1.267081,1.264017,1.269049,1.269448,1.270715,1.266381,1.267703,1.272042,1.266991,1.265304
358,1.262553,1.260639,1.263852,1.261616,1.261263,1.262475,1.26162,1.262596,1.261859,1.26562,1.262903,1.262747,1.264284,1.264631,1.264922,1.262915
359,1.256879,1.257254,1.256114,1.256395,1.255662,1.256144,1.264644,1.259256,1.256647,1.260895,1.25768,1.259445,1.262194,1.263093,1.265729,1.258859
360,1.254953,1.256238,1.253365,1.257961,1.252774,1.255708,1.252908,1.257421,1.255685,1.25467,1.257093,1.257685,1.252102,1.25566,1.258219,1.258948
361,1.251382,1.2491,1.250345,1.249309,1.250134,1.254204,1.249211,1.248798,1.253838,1.25334,1.24888,1.25404,1.248775,1.25024,1.250896,1.251863
362,1.247528,1.246651,1.246029,1.242854,1.245104,1.242606,1.245794,1.241252,1.251986,1.244087,1.244374,1.246243,1.243562,1.244652,1.249423,1.243911
363,1.242256,1.245167,1.241908,1.238846,1.243503,1.239408,1.242934,1.241485,1.244242,1.246449,1.244598,1.242755,1.242949,1.243041,1.241369,1.243235
364,1.234804,1.230898,1.235321,1.237406,1.237322,1.234777,1.233137,1.235169,1.235645,1.237759,1.235931,1.234301,1.234087,1.237562,1.234233,1.23809
365,1.229014,1.230792,1.228249,1.230915,1.233516,1.231036,1.231353,1.23087,1.230018,1.233351,1.230829,1.231685,1.234701,1.227457,1.231573,1.229718
366,1.227695,1.225637,1.227625,1.228185,1.228583,1.224656,1.230543,1.229119,1.225981,1.228796,1.225847,1.229668,1.231664,1.228658,1.227747,1.231364
367,1.227937,1.22407,1.225798,1.223265,1.228636,1.223524,1.225676,1.228627,1.227127,1.226237,1.230963,1.228134,1.226586,1.225674,1.225001,1.226592
368,1.225672,1.219753,1.224675,1.227322,1.226591,1.22506,1.226927,1.22573,1.225753,1.221479,1.223448,1.225578,1.225145,1.228554,1.225378,1.224854
369,1.223222,1.217301,1.222028,1.220675,1.223329,1.221981,1.226991,1.226525,1.225304,1.223651,1.225036,1.223615,1.225933,1.228273,1.225149,1.221836
370,1.221159,1.220135,1.222524,1.217066,1.216188,1.217431,1.222434,1.225756,1.223169,1.224624,1.220825,1.224077,1.220996,1.222372,1.225123,1.221666
371,1.223773,1.222257,1.220572,1.222158,1.224099,1.223595,1.225824,1.220976,1.22442,1.229562,1.226378,1.225292,1.226065,1.228827,1.223151,1.223796
372,1.227694,1.218056,1.219763,1.226352,1.226364,1.222255,1.222359,1.224979,1.220257,1.226353,1.222766,1.227109,1.221604,1.22613,1.220973,1.22459
373,1.173081,1.171869,1.173076,1.169677,1.171704,1.175443,1.172253,1.173704,1.175233,1.175844,1.171291,1.174019,1.174081,1.171109,1.175445,1.176173
374,1.170798,1.169807,1.168658,1.170152,1.168388,1.171555,1.16775,1.171084,1.172683,1.172979,1.168541,1.172747,1.171265,1.170839,1.171919,1.172367
375,1.171976,1.173528,1.17232,1.172695,1.171496,1.172762,1.173637,1.174308,1.174091,1.177296,1.174609,1.176728,1.176043,1.173198,1.173991,1.173677
376,1.176234,1.174488,1.173179,1.170812,1.173663,1.17319,1.172704,1.175319,1.175287,1.172186,1.172866,1.175084,1.173777,1.174826,1.17457,1.173758
377,1.17411,1.172925,1.176318,1.175139,1.174341,1.176393,1.179034,1.177724,1.175321,1.178163,1.174225,1.176253,1.176014,1.177242,1.177294,1.175739
378,1.174575,1.174739,1.175697,1.17224,1.17622,1.176972,1.179481,1.178031,1.173121,1.177857,1.178063,1.176332,1.174287,1.176007,1.177048,1.177131
379,1.180679,1.177709,1.176708,1.17788,1.176274,1.176901,1.177172,1.176922,1.178695,1.179175,1.175952,1.180522,1.17903,1.179996,1.180433,1.177753
380,1.172497,1.176183,1.177351,1.179645,1.180084,1.180436,1.181351,1.180874,1.178359,1.177857,1.176565,1.180938,1.181426,1.18066,1.180981,1.180346
381,1.177211,1.174921,1.176617,1.176541,1.173687,1.177891,1.177896,1.181494,1.179952,1.180936,1.178485,1.17879,1.180752,1.179313,1.180658,1.180004
382,1.179199,1.176428,1.179452,1.179949,1.178098,1.181438,1.179312,1.178227,1.18071,1.178122,1.18106,1.177729,1.177888,1.180188,1.180598,1.176557
383,1.177426,1.179888,1.179764,1.179492,1.181175,1.17922,1.183734,1.183534,1.179985,1.182076,1.181795,1.18201,1.179277,1.18126,1.180088,1.18087
384,1.179417,1.179818,1.177845,1.17958,1.177812,1.177157,1.179045,1.176872,1.180029,1.178251,1.180872,1.179548,1.180436,1.179646,1.18145,1.179038
385,1.177842,1.176152,1.175598,1.178411,1.175858,1.174408,1.176009,1.177749,1.177142,1.180019,1.179154,1.174894,1.175839,1.182094,1.178935,1.180814
386,1.179843,1.175167,1.177936,1.177408,1.178701,1.176741,1.175136,1.177823,1.175316,1.175621,1.179006,1.178709,1.178126,1.17699,1.177433,1.178659
387,1.175843,1.176895,1.170819,1.173526,1.174323,1.17338,1.176322,1.176558,1.175055,1.173249,1.177439,1.176446,1.175309,1.176726,1.175015,1.177365
388,1.175257,1.17284,1.174433,1.17246,1.174917,1.17201,1.17446,1.175958,1.177245,1.176372,1.172031,1.176346,1.175285,1.176103,1.175923,1.169942
389,1.172575,1.17137,1.170359,1.173268,1.173095,1.17491,1.17047,1.171612,1.176111,1.17373,1.173203,1.175247,1.17387,1.17264,1.172948,1.172213
390,1.168847,1.168414,1.169468,1.171875,1.174089,1.16842,1.17132,1.169848,1.170324,1.171287,1.170612,1.172433,1.172458,1.17146,1.171414,1.171645
391,1.168178,1.166659,1.168615,1.167871,1.16901,1.16942,1.169553,1.169451,1.170594,1.172251,1.170944,1.168788,1.169183,1.169318,1.170524,1.169316
392,1.165896,1.164888,1.164878,1.165913,1.165702,1.166602,1.166128,1.164337,1.164972,1.164695,1.168158,1.166626,1.166908,1.168288,1.169132,1.166506
393,1.162817,1.161662,1.159976,1.162503,1.159965,1.164258,1.163239,1.164484,1.163925,1.162909,1.162439,1.163114,1.164111,1.165111,1.163455,1.164106
394,1.159158,1.156756,1.157441,1.15916,1.161079,1.161988,1.159611,1.158626,1.160487,1.160686,1.163069,1.160115,1.160267,1.162971,1.161883,1.159718
395,1.158513,1.15544,1.154754,1.156786,1.155274,1.156586,1.159856,1.156671,1.157417,1.159178,1.157398,1.15772,1.155519,1.157732,1.157631,1.158604
396,1.154461,1.1546,1.155881,1.15562,1.15425,1.152193,1.155268,1.155329,1.155024,1.155384,1.155675,1.157679,1.157912,1.155584,1.154994,1.154974
397,1.151155,1.151829,1.148232,1.151041,1.150323,1.152129,1.151459,1.154369,1.153361,1.15229,1.15669,1.153723,1.156082,1.154709,1.154055,1.155749
398,1.148585,1.149273,1.149074,1.149025,1.149786,1.149388,1.149539,1.151644,1.151173,1.150993,1.150597,1.152091,1.151201,1.151891,1.153191,1.151774
399,1.14994,1.145669,1.14922,1.149268,1.148813,1.148909,1.150459,1.146388,1.147893,1.148896,1.149319,1.152744,1.150077,1.149541,1.151817,1.148952
400,1.148849,1.149021,1.14546,1.147247,1.147723,1.146871,1.148175,1.150123,1.14806,1.148902,1.147507,1.147709,1.148158,1.14868,1.148062,1.147217
401,1.151096,1.150316,1.147713,1.147315,1.147035,1.146771,1.147566,1.149882,1.148013,1.148835,1.146221,1.148212,1.146519,1.14846,1.152868,1.150103
402,1.1467,1.143005,1.14601,1.147046,1.145585,1.148232,1.147973,1.145314,1.145777,1.147607,1.148018,1.147506,1.14672,1.148182,1.1471,1.146693
403,1.143694,1.143999,1.142391,1.143004,1.142465,1.143426,1.146044,1.143222,1.144927,1.146043,1.1478,1.145078,1.1453,1.144436,1.143643,1.144408
404,1.144057,1.144064,1.145229,1.14313,1.144596,1.144194,1.146532,1.145658,1.144595,1.145209,1.145743,1.144916,1.144576,1.145487,1.146106,1.14376
405,1.143939,1.143254,1.141633,1.139525,1.142413,1.142517,1.144023,1.147036,1.142977,1.145131,1.142172,1.144096,1.142702,1.145885,1.143119,1.143439
406,1.141082,1.140692,1.140183,1.140938,1.141636,1.141078,1.143331,1.143876,1.143382,1.143253,1.141657,1.142742,1.140309,1.143069,1.144222,1.14347
407,1.142711,1.142557,1.140355,1.138687,1.141526,1.142444,1.140563,1.143133,1.141785,1.144139,1.140892,1.143973,1.143844,1.141991,1.143894,1.145292
408,1.137866,1.140953,1.139784,1.138612,1.140989,1.142697,1.139829,1.139595,1.139418,1.14221,1.141631,1.142438,1.140849,1.143157,1.142555,1.14015
409,1.139015,1.136938,1.137815,1.137404,1.137445,1.139839,1.141745,1.139535,1.13966,1.140974,1.140112,1.138905,1.138947,1.140224,1.141275,1.138724
410,1.137294,1.136882,1.138153,1.137052,1.139072,1.140377,1.136397,1.137667,1.139603,1.138431,1.139157,1.139731,1.138769,1.140477,1.13939,1.138191
411,1.138242,1.136042,1.136898,1.138221,1.137349,1.137039,1.138904,1.13917,1.137296,1.137748,1.138804,1.139411,1.138212,1.1395,1.139542,1.138608
412,1.139747,1.136495,1.137405,1.136508,1.136847,1.138219,1.13791,1.137989,1.13847,1.137327,1.140102,1.136992,1.138734,1.138689,1.139542,1.136219
413,1.136118,1.1356,1.135392,1.136339,1.136291,1.134503,1.138734,1.138858,1.137339,1.135081,1.136667,1.136904,1.13557,1.138294,1.138496,1.137315
414,1.135516,1.136362,1.136137,1.13349,1.134846,1.134784,1.137818,1.13722,1.136335,1.136349,1.136058,1.138342,1.137783,1.139069,1.138655,1.136088
415,1.138359,1.137105,1.137218,1.133871,1.135242,1.137293,1.136959,1.139581,1.135658,1.136314,1.138841,1.138897,1.13836,1.139965,1.139392,1.136494
416,1.136407,1.137327,1.13399,1.136346,1.134115,1.13739,1.137856,1.138343,1.137224,1.137662,1.137442,1.138252,1.138034,1.13643,1.138153,1.135429
417,1.13912,1.135194,1.133982,1.135671,1.137531,1.136638,1.138145,1.137754,1.136963,1.136683,1.137614,1.137647,1.138239,1.138375,1.136203,1.136613
418,1.135383,1.137086,1.135791,1.13769,1.137745,1.138758,1.136796,1.137089,1.136082,1.13872,1.137479,1.137219,1.137978,1.137478,1.137502,1.138206
419,1.138441,1.137757,1.138549,1.137391,1.135638,1.139215,1.138881,1.139085,1.138352,1.139831,1.138781,1.140324,1.142415,1.139819,1.140838,1.138762
420,1.140157,1.137675,1.137048,1.139121,1.139459,1.140175,1.141773,1.140174,1.140644,1.139847,1.140392,1.139201,1.139064,1.138914,1.138989,1.140651
421,1.137312,1.140227,1.135837,1.13981,1.139561,1.139937,1.14238,1.141037,1.140944,1.141416,1.140901,1.140356,1.138749,1.141381,1.142452,1.13939
422,1.140385,1.143299,1.14171,1.140408,1.141989,1.142102,1.141258,1.142113,1.140779,1.142044,1.142324,1.141492,1.139913,1.142949,1.142325,1.141258
423,1.142346,1.140629,1.140649,1.140463,1.138609,1.141821,1.141122,1.140758,1.143074,1.141085,1.142273,1.140793,1.144021,1.143515,1.140835,1.142634
424,1.141909,1.141974,1.142821,1.144078,1.141605,1.140989,1.144329,1.144168,1.143459,1.144112,1.14465,1.142876,1.146112,1.14489,1.143576,1.141555
425,1.140954,1.141503,1.141353,1.139588,1.142783,1.142781,1.143521,1.142464,1.141698,1.143659,1.143504,1.142751,1.142073,1.143254,1.145144,1.141724
426,1.143894,1.141841,1.142461,1.143253,1.142838,1.142154,1.140883,1.141961,1.143007,1.142995,1.142645,1.144933,1.146552,1.143111,1.144079,1.142338
427,1.14569,1.14187,1.145959,1.144376,1.143086,1.144389,1.143984,1.146773,1.145035,1.144777,1.145902,1.144785,1.144769,1.147182,1.14635,1.14347
428,1.145698,1.14406,1.143827,1.142688,1.142715,1.143054,1.143861,1.145917,1.142097,1.143348,1.145902,1.146144,1.145176,1.146274,1.143981,1.145293
429,1.144227,1.142801,1.144051,1.143687,1.141795,1.144103,1.145253,1.14444,1.145668,1.146884,1.145169,1.145682,1.144817,1.145955,1.145192,1.145374
430,1.147438,1.145874,1.143335,1.145675,1.146987,1.148621,1.146068,1.145644,1.146925,1.148166,1.146731,1.145948,1.146414,1.147532,1.147021,1.144916
431,1.14489,1.146041,1.146253,1.14415,1.143788,1.146732,1.146292,1.145742,1.145255,1.146886,1.146732,1.145584,1.147495,1.146662,1.14716,1.146315
432,1.148457,1.147201,1.146899,1.147753,1.148048,1.146873,1.148054,1.150264,1.148788,1.148916,1.150117,1.147251,1.149566,1.148565,1.147888,1.147916
433,1.148655,1.147264,1.146938,1.150016,1.148946,1.149343,1.148367,1.148713,1.149139,1.14987,1.149872,1.14819,1.148149,1.149048,1.151455,1.148709
434,1.14907,1.151204,1.147018,1.148431,1.148099,1.14983,1.150831,1.149533,1.149773,1.149076,1.151613,1.151093,1.15138,1.149596,1.151275,1.147312
435,1.151319,1.151459,1.150108,1.14883,1.149183,1.149256,1.151571,1.151981,1.1498,1.150777,1.149283,1.152962,1.149052,1.153986,1.151837,1.150492
436,1.150231,1.149806,1.151391,1.150222,1.150742,1.149217,1.1504,1.152703,1.150349,1.151943,1.151758,1.152037,1.152126,1.152264,1.151935,1.152354
437,1.151681,1.153456,1.151357,1.150742,1.151279,1.152231,1.153592,1.154885,1.15322,1.154006,1.154585,1.153085,1.153058,1.15382,1.154276,1.153677
438,1.152735,1.15369,1.152535,1.151448,1.151378,1.153446,1.153314,1.154514,1.155048,1.15402,1.15333,1.155089,1.154361,1.155231,1.152948,1.154181
439,1.152867,1.152097,1.153749,1.153824,1.153088,1.153289,1.153727,1.153832,1.153732,1.151658,1.155709,1.154112,1.154907,1.154497,1.155915,1.153619
440,1.153741,1.15209,1.152288,1.15412,1.151072,1.154074,1.152954,1.154786,1.154593,1.155793,1.154121,1.155561,1.157047,1.152822,1.154577,1.15389
441,1.152016,1.152745,1.15274,1.153284,1.153809,1.153029,1.153066,1.152924,1.152455,1.155363,1.153997,1.153901,1.153807,1.15305,1.156015,1.153001
442,1.151021,1.152506,1.151621,1.153648,1.153226,1.153788,1.154189,1.153963,1.15423,1.153487,1.156046,1.154025,1.153685,1.154312,1.155948,1.152379
443,1.153024,1.154449,1.152202,1.153217,1.151844,1.154136,1.154807,1.152501,1.153274,1.152591,1.155972,1.155358,1.155714,1.154796,1.154131,1.154219
444,1.154618,1.152367,1.153532,1.153497,1.151198,1.152058,1.154304,1.152903,1.15302,1.154222,1.154012,1.153387,1.153607,1.156988,1.153616,1.151375
445,1.152352,1.151647,1.150979,1.151313,1.150859,1.148404,1.152347,1.154715,1.150988,1.152583,1.153992,1.152342,1.153184,1.155474,1.153543,1.152008
446,1.151981,1.151176,1.151172,1.151092,1.152835,1.152435,1.153178,1.152967,1.151726,1.153362,1.154081,1.153443,1.155134,1.154085,1.153929,1.153022
447,1.152099,1.150977,1.152345,1.151652,1.149883,1.150135,1.152079,1.150843,1.151645,1.15163,1.152191,1.15201,1.15157,1.153017,1.152312,1.150876
448,1.149158,1.149926,1.148266,1.1501,1.149238,1.149772,1.151553,1.151055,1.151363,1.152214,1.151926,1.150609,1.150023,1.151949,1.151351,1.149543
449,1.146878,1.148957,1.14518,1.146977,1.146604,1.148311,1.146343,1.149796,1.148738,1.148929,1.149799,1.14855,1.146886,1.150757,1.149838,1.147108
450,1.146364,1.147013,1.144415,1.145645,1.147576,1.144894,1.148079,1.144779,1.145764,1.145639,1.145994,1.145626,1.146289,1.146994,1.148451,1.144649
451,1.142924,1.143387,1.143435,1.141544,1.142666,1.143455,1.14475,1.143476,1.142978,1.145215,1.145041,1.144203,1.142896,1.145362,1.145677,1.141228
452,1.141945,1.142452,1.141183,1.141444,1.140602,1.144093,1.144694,1.145003,1.143839,1.143488,1.144276,1.144233,1.14385,1.145594,1.145282,1.14289
453,1.141087,1.140863,1.139949,1.139712,1.139881,1.139802,1.139434,1.140899,1.139271,1.141268,1.141371,1.141597,1.142883,1.143084,1.142925,1.140336
454,1.140079,1.138029,1.137925,1.137784,1.140828,1.139323,1.139649,1.141046,1.14034,1.140272,1.141288,1.140906,1.14186,1.141708,1.140904,1.139901
455,1.139253,1.138538,1.139056,1.138099,1.139171,1.137985,1.139609,1.140258,1.140184,1.140807,1.139128,1.141883,1.140763,1.140361,1.141569,1.138547
456,1.135809,1.134174,1.135642,1.135941,1.135212,1.135963,1.135284,1.136546,1.133186,1.137198,1.134911,1.137971,1.137139,1.13353,1.135792,1.134947
457,1.134095,1.134308,1.133082,1.134201,1.132843,1.133612,1.134472,1.134775,1.133755,1.13449,1.134348,1.135887,1.136723,1.135675,1.135351,1.135722
458,1.131525,1.131829,1.131372,1.130367,1.134075,1.133391,1.133171,1.133231,1.133172,1.132475,1.131729,1.132493,1.133067,1.13324,1.134984,1.133119
459,1.130837,1.131124,1.130364,1.131492,1.130373,1.130741,1.130863,1.130115,1.131281,1.131945,1.132466,1.131387,1.13129,1.132447,1.132507,1.130569
460,1.129183,1.129867,1.129265,1.127867,1.129092,1.130574,1.127438,1.128012,1.130047,1.131121,1.128754,1.129312,1.130453,1.131336,1.130279,1.128524
461,1.126473,1.126064,1.125578,1.124974,1.12752,1.128645,1.127616,1.128025,1.130735,1.128103,1.127545,1.127706,1.129474,1.127758,1.127419,1.126646
462,1.126572,1.127137,1.122592,1.125686,1.123537,1.124567,1.125291,1.125976,1.127894,1.126888,1.12742,1.127281,1.125437,1.127028,1.126767,1.124482
463,1.125973,1.123712,1.123131,1.123266,1.124733,1.125796,1.125237,1.127107,1.123902,1.125682,1.125462,1.126343,1.124007,1.124999,1.126112,1.125084
464,1.124728,1.123251,1.12238,1.123465,1.123277,1.125836,1.123881,1.124686,1.125381,1.124334,1.124346,1.126203,1.12465,1.126272,1.125077,1.123233
465,1.123034,1.123376,1.123894,1.120703,1.122501,1.123113,1.123389,1.123254,1.125241,1.123252,1.123388,1.12474,1.124431,1.123664,1.123497,1.12424
466,1.122288,1.122448,1.122907,1.121194,1.121877,1.124015,1.12392,1.122766,1.124019,1.124654,1.124323,1.124739,1.12357,1.125076,1.124275,1.124483
467,1.122601,1.121449,1.12091,1.12189,1.121999,1.122446,1.123894,1.124112,1.123073,1.123403,1.124802,1.124005,1.123489,1.123738,1.123714,1.123082
468,1.123165,1.124904,1.122632,1.123353,1.12364,1.123414,1.123393,1.124259,1.122942,1.124357,1.124953,1.123738,1.123827,1.124488,1.125526,1.121998
469,1.124497,1.123218,1.121711,1.121456,1.123418,1.123358,1.122485,1.124936,1.123214,1.125549,1.124573,1.122246,1.123465,1.124554,1.125059,1.122396
470,1.124016,1.124054,1.122328,1.121774,1.122018,1.123594,1.124099,1.123678,1.123934,1.123654,1.123821,1.124209,1.122039,1.123619,1.124922,1.122683
471,1.124122,1.122119,1.121762,1.121766,1.122008,1.123642,1.123872,1.124381,1.123652,1.123909,1.124213,1.124009,1.125381,1.124628,1.123316,1.12329
472,1.125228,1.124456,1.123936,1.123207,1.125682,1.125992,1.124423,1.124666,1.124805,1.124632,1.125127,1.127255,1.12436,1.126438,1.126019,1.125201
473,1.125333,1.125309,1.125252,1.12719,1.123673,1.126218,1.125344,1.126508,1.126404,1.126527,1.125342,1.126421,1.125956,1.126935,1.128539,1.124243
474,1.125903,1.127181,1.126944,1.125461,1.12643,1.127414,1.127164,1.127042,1.126237,1.12599,1.126888,1.127211,1.12643,1.127171,1.127489,1.126622
475,1.127558,1.129249,1.126309,1.125239,1.126422,1.127879,1.12722,1.12836,1.128134,1.128636,1.128193,1.128265,1.127895,1.128151,1.128523,1.128042
476,1.129137,1.129175,1.128118,1.127305,1.128148,1.126961,1.128722,1.128275,1.127435,1.127889,1.12964,1.12772,1.128567,1.129191,1.129687,1.128195
477,1.129164,1.12983,1.128228,1.130127,1.127732,1.130212,1.130014,1.130151,1.129164,1.129612,1.130932,1.129929,1.131361,1.131173,1.13001,1.12923
478,1.133061,1.130168,1.12964,1.13096,1.130321,1.130912,1.131502,1.131675,1.131348,1.132363,1.131029,1.13341,1.132086,1.132932,1.131892,1.13038
479,1.131506,1.132357,1.130468,1.133336,1.131014,1.131586,1.133233,1.131575,1.132094,1.133859,1.131703,1.132495,1.133798,1.133899,1.132887,1.13066
480,1.133238,1.13291,1.132962,1.131571,1.132719,1.132513,1.133686,1.132009,1.13381,1.133398,1.133407,1.133901,1.133211,1.134421,1.134669,1.131924
481,1.136162,1.135168,1.133986,1.134094,1.134165,1.134936,1.134112,1.136201,1.136514,1.13429,1.135178,1.134186,1.133936,1.136464,1.13554,1.133564
482,1.137486,1.136284,1.135626,1.136274,1.13634,1.136142,1.136766,1.137414,1.137725,1.137126,1.135913,1.136529,1.136835,1.137697,1.136984,1.136157
483,1.137193,1.137655,1.135305,1.137933,1.137286,1.139871,1.138868,1.138975,1.139384,1.137415,1.138007,1.138329,1.139322,1.138364,1.13994,1.137366
484,1.140468,1.137873,1.139328,1.138885,1.139027,1.139386,1.13992,1.139987,1.139979,1.139695,1.141319,1.141166,1.138952,1.140965,1.138238,1.137436
485,1.140084,1.137738,1.139314,1.139868,1.139663,1.140708,1.142164,1.141485,1.140014,1.140769,1.142574,1.141666,1.14196,1.1422,1.1407,1.141156
486,1.140869,1.142101,1.139132,1.142125,1.141222,1.142349,1.141562,1.14277,1.141101,1.143381,1.142518,1.142954,1.142385,1.141625,1.142425,1.141853
487,1.142771,1.140843,1.140249,1.139441,1.142063,1.142321,1.141987,1.141023,1.14171,1.142803,1.142812,1.144062,1.142087,1.142333,1.144598,1.142465
488,1.143387,1.143592,1.14414,1.142068,1.142949,1.1453,1.145407,1.144379,1.144626,1.142634,1.145183,1.145256,1.144992,1.144384,1.143679,1.144277
489,1.143507,1.14282,1.142592,1.143162,1.143698,1.143627,1.14458,1.144497,1.146392,1.144409,1.14392,1.144029,1.146128,1.146134,1.14712,1.144655
490,1.14705,1.143742,1.145604,1.145543,1.144653,1.145037,1.147293,1.145804,1.147189,1.146631,1.146855,1.147458,1.147033,1.145587,1.146943,1.144599
491,1.147552,1.14557,1.147339,1.147027,1.147803,1.146672,1.148482,1.14623,1.148336,1.148598,1.146272,1.148614,1.147197,1.147326,1.147733,1.147109
492,1.148105,1.148506,1.147297,1.146902,1.146835,1.148281,1.148002,1.148383,1.148008,1.148435,1.149831,1.148955,1.14918,1.147758,1.152075,1.148157
493,1.14995,1.148429,1.149152,1.146045,1.148728,1.149542,1.151655,1.149904,1.147764,1.149033,1.149253,1.149718,1.15112,1.149675,1.1503,1.148308
494,1.149398,1.150272,1.150244,1.148181,1.149817,1.149968,1.149664,1.150643,1.149299,1.150472,1.149261,1.149864,1.149636,1.151047,1.15155,1.148788
495,1.151453,1.149206,1.1499,1.150519,1.14827,1.151055,1.15148,1.150551,1.151365,1.150509,1.152485,1.150937,1.152196,1.152282,1.153142,1.14875
496,1.151591,1.148745,1.148349,1.150901,1.149322,1.150401,1.152058,1.150037,1.15251,1.151821,1.151234,1.151753,1.151387,1.151142,1.153252,1.150127
497,1.152514,1.152127,1.150652,1.152041,1.152772,1.152566,1.152523,1.153435,1.153279,1.153153,1.152651,1.153078,1.154587,1.154057,1.152461,1.151933
498,1.151047,1.150574,1.14967,1.149818,1.152979,1.150657,1.150772,1.152765,1.15292,1.152753,1.152673,1.152859,1.152071,1.15195,1.152726,1.1508
499,1.153549,1.152154,1.151803,1.152198,1.151606,1.153338,1.154577,1.154512,1.154145,1.154311,1.154223,1.155418,1.154919,1.153694,1.155072,1.151859
500,1.152968,1.152682,1.153197,1.15261,1.154214,1.154582,1.15418,1.153271,1.152831,1.153479,1.153437,1.155043,1.152989,1.153757,1.153963,1.151103
501,1.154764,1.153049,1.152686,1.152867,1.15221,1.153403,1.153391,1.152403,1.154731,1.154381,1.154104,1.155442,1.154474,1.153952,1.155511,1.153094
502,1.152676,1.153691,1.152046,1.153604,1.153811,1.156024,1.1543,1.154375,1.155578,1.154709,1.155728,1.154935,1.156246,1.154528,1.155358,1.150593
503,1.152529,1.152611,1.153387,1.152525,1.154151,1.153556,1.154342,1.153897,1.153571,1.155379,1.156891,1.157014,1.155861,1.156458,1.155222,1.151445
504,1.153235,1.151783,1.150908,1.152974,1.154348,1.153613,1.154042,1.154047,1.154936,1.154073,1.154187,1.155785,1.155638,1.15437,1.155921,1.151966
505,1.153134,1.152919,1.151833,1.152666,1.153751,1.152745,1.153315,1.154422,1.15495,1.153732,1.154858,1.153895,1.155496,1.154369,1.154165,1.15137
506,1.153179,1.152334,1.151786,1.153675,1.152988,1.153076,1.152356,1.154282,1.153649,1.155432,1.155417,1.155584,1.154575,1.156709,1.154424,1.151744
507,1.153891,1.153306,1.152339,1.152645,1.152026,1.153285,1.153582,1.153893,1.152826,1.153854,1.153095,1.155787,1.153845,1.154793,1.154912,1.149472
508,1.152052,1.152355,1.152718,1.152827,1.154158,1.153667,1.153579,1.155455,1.153003,1.154238,1.155696,1.155498,1.155086,1.156708,1.155413,1.150633
509,1.15177,1.151734,1.151135,1.152285,1.153664,1.153535,1.15362,1.15407,1.153799,1.15387,1.154262,1.154919,1.155808,1.154759,1.156414,1.151013
510,1.149421,1.150485,1.149075,1.15183,1.150918,1.150837,1.151852,1.153658,1.152521,1.152197,1.153431,1.153746,1.153989,1.153076,1.155641,1.150409
511,1.150362,1.152019,1.150129,1.151122,1.150622,1.150047,1.150633,1.151402,1.150288,1.154341,1.154875,1.153211,1.151142,1.155552,1.152737,1.149028
512,1.148928,1.149927,1.14787,1.14885,1.149535,1.151315,1.152645,1.151018,1.153701,1.151663,1.152937,1.151373,1.152577,1.15247,1.15262,1.146879
513,1.148068,1.148459,1.146445,1.146636,1.149071,1.150285,1.148757,1.151254,1.150995,1.150946,1.149798,1.151667,1.151527,1.15166,1.15332,1.146319
514,1.146398,1.147989,1.148259,1.148396,1.147608,1.150278,1.150581,1.151467,1.150993,1.150209,1.150751,1.152674,1.153639,1.152376,1.152478,1.147566
515,1.146285,1.146196,1.146886,1.147252,1.146487,1.147282,1.147981,1.150523,1.148433,1.148935,1.14786,1.1489,1.151341,1.150373,1.149705,1.145545
516,1.146291,1.144929,1.144482,1.145171,1.147202,1.147289,1.145961,1.145922,1.146964,1.148687,1.148238,1.148316,1.150491,1.147951,1.147504,1.144771
517,1.14544,1.142125,1.145275,1.146808,1.146215,1.1475,1.147871,1.147319,1.148003,1.147966,1.148081,1.148566,1.148579,1.151796,1.149567,1.141346
518,1.143776,1.142991,1.143806,1.143525,1.143524,1.145844,1.146388,1.146555,1.14705,1.147702,1.146329,1.148643,1.147334,1.149667,1.148717,1.142388
519,1.141185,1.13908,1.142395,1.141896,1.142887,1.143415,1.144277,1.144614,1.146154,1.146818,1.147563,1.147401,1.147585,1.147448,1.146345,1.139704
520,1.140246,1.139876,1.139985,1.140755,1.140327,1.143088,1.143482,1.141987,1.144982,1.144913,1.144165,1.144681,1.143074,1.144553,1.144821,1.13879
521,1.138086,1.137681,1.138463,1.139024,1.142785,1.141186,1.141479,1.142121,1.142542,1.143579,1.144376,1.144733,1.146688,1.14427,1.145589,1.136609
522,1.137761,1.139109,1.139105,1.137489,1.140715,1.139522,1.139798,1.141788,1.142217,1.142699,1.143332,1.142837,1.142444,1.145243,1.14481,1.136084
523,1.135774,1.134263,1.136569,1.136698,1.137688,1.138562,1.139403,1.139401,1.13949,1.142059,1.141608,1.14085,1.141129,1.141853,1.142583,1.132586
524,1.133272,1.133984,1.133971,1.134704,1.138006,1.139003,1.140041,1.138998,1.139136,1.139307,1.140053,1.140142,1.138578,1.142077,1.1401,1.133019
525,1.132968,1.132075,1.132209,1.134122,1.135501,1.13649,1.139009,1.136825,1.139219,1.139925,1.137851,1.136804,1.140017,1.138216,1.139564,1.13136
526,1.130879,1.130507,1.130735,1.132789,1.134004,1.134784,1.135413,1.137254,1.136055,1.136771,1.136625,1.137383,1.139023,1.139181,1.137646,1.129486
527,1.128183,1.128103,1.12928,1.133013,1.133738,1.132466,1.133402,1.136105,1.135735,1.135937,1.135789,1.135929,1.135678,1.136137,1.138059,1.127934
528,1.12862,1.126776,1.128562,1.130108,1.130608,1.130579,1.13387,1.132899,1.133039,1.134125,1.133556,1.134135,1.136211,1.136013,1.134754,1.126295
529,1.126592,1.124799,1.124911,1.126282,1.128568,1.131871,1.129762,1.13199,1.133304,1.134349,1.133067,1.13397,1.134943,1.134506,1.135044,1.12308
530,1.124237,1.125271,1.126413,1.127278,1.128905,1.128421,1.130449,1.132282,1.132083,1.130407,1.130266,1.132532,1.133005,1.133716,1.134146,1.122704
531,1.12291,1.123311,1.123252,1.125879,1.126955,1.126639,1.128853,1.131093,1.129559,1.129086,1.132253,1.13205,1.129499,1.13403,1.132115,1.121198
532,1.122598,1.123004,1.122522,1.123943,1.126474,1.128533,1.128305,1.129544,1.126971,1.13094,1.130521,1.130803,1.130707,1.130308,1.131692,1.120226
533,1.120344,1.120365,1.120287,1.123278,1.125734,1.124616,1.126791,1.128238,1.12852,1.130822,1.129085,1.130059,1.129833,1.129851,1.128472,1.116632
534,1.118485,1.12051,1.119779,1.12192,1.12416,1.124902,1.125258,1.126815,1.126958,1.127672,1.130645,1.128711,1.129966,1.129022,1.127668,1.119319
535,1.117602,1.11777,1.117814,1.120648,1.122271,1.124851,1.12468,1.12641,1.124722,1.127914,1.123826,1.127231,1.126854,1.127765,1.127296,1.115096
536,1.115185,1.117411,1.119401,1.120438,1.120592,1.122615,1.126668,1.125299,1.124546,1.126536,1.125629,1.128855,1.128415,1.12955,1.128148,1.115294
537,1.147563,1.145541,1.147041,1.149469,1.150867,1.153564,1.154863,1.155665,1.156387,1.154092,1.156642,1.157498,1.157755,1.159322,1.15791,1.143702
538,1.145074,1.14484,1.145051,1.146882,1.147624,1.1517,1.153591,1.154231,1.155672,1.156215,1.15519,1.158633,1.157367,1.157069,1.157717,1.142043
539,1.144256,1.142245,1.145563,1.146936,1.148752,1.15056,1.152108,1.152327,1.152521,1.15565,1.155516,1.156095,1.155456,1.155047,1.158173,1.141216
540,1.142346,1.141927,1.143735,1.145598,1.14645,1.148873,1.151444,1.151947,1.15281,1.154708,1.156468,1.154393,1.156714,1.156667,1.156737,1.13927
541,1.138469,1.139481,1.139042,1.142194,1.144859,1.146157,1.147983,1.148653,1.148195,1.150089,1.151862,1.151519,1.154062,1.154589,1.154204,1.137065
542,1.138159,1.135091,1.136715,1.140766,1.141213,1.143339,1.146532,1.148179,1.147616,1.150722,1.151242,1.150816,1.150403,1.151955,1.15142,1.136611
543,1.135023,1.136792,1.137123,1.138515,1.14214,1.143462,1.145157,1.146392,1.147597,1.14697,1.148464,1.14929,1.150155,1.150674,1.151108,1.131363
544,1.134987,1.135928,1.136478,1.138282,1.141832,1.141518,1.144212,1.145181,1.146469,1.147063,1.149173,1.150149,1.150373,1.149977,1.151088,1.131927
545,1.131206,1.132799,1.133654,1.136923,1.138247,1.141381,1.142786,1.141837,1.144913,1.145875,1.146567,1.147087,1.146507,1.150598,1.149171,1.129372
546,1.129266,1.130835,1.133759,1.135347,1.137335,1.13926,1.140731,1.143286,1.144053,1.145777,1.144715,1.147421,1.147014,1.14746,1.149859,1.129719
547,1.127178,1.128625,1.131257,1.134173,1.134591,1.138638,1.140719,1.142708,1.142929,1.144148,1.144902,1.146013,1.1466,1.146876,1.147141,1.128962
548,1.12703,1.127123,1.129012,1.131028,1.133428,1.136829,1.137743,1.139459,1.140936,1.140872,1.142927,1.143502,1.144279,1.145505,1.145918,1.125483
549,1.127025,1.125159,1.126987,1.131985,1.133674,1.134807,1.137356,1.140081,1.140674,1.141424,1.14093,1.144252,1.144099,1.143754,1.145454,1.123116
550,1.124714,1.12495,1.126378,1.12944,1.133475,1.133254,1.137508,1.13896,1.137819,1.140345,1.140939,1.139937,1.14264,1.143329,1.14551,1.1231
551,1.124153,1.122537,1.124524,1.127039,1.130641,1.133,1.137226,1.136358,1.138564,1.139964,1.140186,1.141643,1.141338,1.146807,1.142368,1.123106
552,1.125129,1.12286,1.125358,1.128232,1.130839,1.133053,1.136598,1.136152,1.138496,1.140746,1.14085,1.142781,1.141314,1.144623,1.141839,1.119019
553,1.123618,1.120404,1.124974,1.126913,1.128949,1.132618,1.131633,1.137735,1.138859,1.137889,1.141364,1.141448,1.141612,1.14255,1.143753,1.119074
554,1.120674,1.119574,1.121977,1.124862,1.128079,1.13249,1.132258,1.134571,1.136649,1.136951,1.140601,1.140386,1.138971,1.139163,1.141549,1.119026
555,1.119944,1.120936,1.122428,1.123425,1.126217,1.129857,1.133543,1.134427,1.134547,1.137051,1.138438,1.140542,1.138848,1.140573,1.143344,1.115797
556,1.117136,1.116647,1.118879,1.124336,1.125221,1.126013,1.129145,1.132945,1.133561,1.134168,1.136475,1.13742,1.13933,1.138192,1.140537,1.114575
557,1.116771,1.115843,1.12012,1.12123,1.123736,1.125695,1.128727,1.130396,1.134711,1.135784,1.135817,1.138121,1.138102,1.138255,1.14039,1.112994
558,1.116706,1.115383,1.118822,1.120088,1.12509,1.126219,1.129534,1.13287,1.133208,1.137013,1.136483,1.138535,1.139753,1.138974,1.140526,1.113805
559,1.11816,1.119217,1.119018,1.122839,1.124339,1.13031,1.132619,1.134686,1.135562,1.136295,1.137695,1.139022,1.138991,1.14287,1.14248,1.114671
560,1.118131,1.117146,1.12056,1.121904,1.125887,1.129861,1.131543,1.133958,1.136269,1.136659,1.139555,1.140055,1.141976,1.141403,1.142791,1.112986
561,1.118805,1.118916,1.121748,1.124369,1.127581,1.131259,1.132611,1.134686,1.13686,1.137716,1.14217,1.141997,1.143246,1.147144,1.145314,1.113427
562,1.120111,1.11961,1.119422,1.124204,1.127568,1.131823,1.13407,1.135546,1.138498,1.140771,1.141488,1.143345,1.146022,1.147163,1.145532,1.114674
563,1.120534,1.11892,1.122409,1.126404,1.130994,1.131312,1.136635,1.137937,1.13974,1.142496,1.143023,1.145384,1.145639,1.147701,1.150238,1.115352
564,1.120073,1.119996,1.122969,1.127336,1.131062,1.133324,1.135626,1.139369,1.141746,1.143924,1.143566,1.147641,1.145755,1.147642,1.149819,1.114619
565,1.119194,1.119355,1.1207,1.125703,1.130328,1.132195,1.137289,1.137591,1.142271,1.143168,1.145417,1.144952,1.149351,1.148615,1.149457,1.115919
566,1.119209,1.122598,1.122315,1.127044,1.130811,1.133474,1.136705,1.14101,1.141553,1.143676,1.144991,1.145899,1.148043,1.149559,1.150835,1.117236
567,1.119439,1.119294,1.121897,1.125395,1.129998,1.134277,1.134534,1.139564,1.141801,1.141665,1.144303,1.14438,1.148045,1.14973,1.147588,1.113845
568,1.115992,1.115622,1.120122,1.12428,1.129993,1.132083,1.135491,1.135554,1.140644,1.143776,1.143278,1.1456,1.146408,1.150918,1.149471,1.11278
569,1.114802,1.115637,1.120044,1.12244,1.127166,1.13028,1.13481,1.13933,1.140561,1.142263,1.1465,1.145404,1.145838,1.149749,1.150918,1.113069
570,1.116433,1.114282,1.119043,1.12245,1.124528,1.129179,1.131755,1.135906,1.138447,1.142679,1.142067,1.147085,1.147927,1.149551,1.148584,1.109811
571,1.111733,1.112039,1.114637,1.11911,1.122307,1.127925,1.129874,1.131012,1.13349,1.136317,1.139873,1.143671,1.143399,1.144914,1.145972,1.107102
572,1.108585,1.108808,1.113918,1.116312,1.120468,1.124342,1.128753,1.13207,1.133888,1.13661,1.138721,1.140368,1.142772,1.14459,1.145982,1.106881
573,1.109171,1.109859,1.113142,1.118488,1.124137,1.127527,1.130929,1.132761,1.136043,1.137754,1.141309,1.142136,1.144433,1.146031,1.146525,1.10785
574,1.111392,1.109468,1.113264,1.118597,1.12222,1.124547,1.128974,1.132914,1.135997,1.137791,1.140231,1.143245,1.145804,1.147464,1.147988,1.104807
575,1.11054,1.111383,1.11708,1.118809,1.122877,1.125872,1.131019,1.134766,1.138649,1.140372,1.141291,1.142985,1.145719,1.146928,1.146618,1.107901
576,1.110069,1.110561,1.113048,1.1166,1.121465,1.125686,1.12853,1.131747,1.136604,1.139125,1.140617,1.144315,1.146759,1.147191,1.14993,1.105566
577,1.109272,1.109855,1.112786,1.117025,1.120557,1.125399,1.129004,1.130675,1.135355,1.139291,1.141285,1.144177,1.145191,1.146948,1.149253,1.105516
578,1.109265,1.10662,1.112257,1.115279,1.119444,1.123343,1.127197,1.131451,1.134018,1.137912,1.139709,1.142532,1.143757,1.146871,1.14859,1.103756
579,1.103714,1.105594,1.108646,1.11228,1.116708,1.120915,1.126362,1.128513,1.131127,1.135432,1.137662,1.140236,1.141444,1.144676,1.14587,1.099255
580,1.101076,1.101939,1.106277,1.110421,1.114258,1.118478,1.122633,1.124388,1.128312,1.131043,1.133428,1.136091,1.138154,1.141366,1.142709,1.097175
581,1.097117,1.096811,1.101011,1.105771,1.110227,1.114556,1.118513,1.122582,1.125836,1.127819,1.130957,1.132324,1.134778,1.138308,1.139835,1.093303
582,1.095939,1.094789,1.0984,1.103666,1.107351,1.111011,1.116354,1.120241,1.123511,1.125445,1.128656,1.131354,1.133194,1.134166,1.137867,1.0907
583,1.092434,1.093348,1.098271,1.101773,1.107332,1.111024,1.113554,1.118609,1.122559,1.124533,1.129123,1.130754,1.131945,1.134165,1.135981,1.090726
584,1.091355,1.092913,1.094791,1.100885,1.103934,1.107965,1.112535,1.117109,1.12078,1.122337,1.124917,1.127633,1.129773,1.133694,1.134606,1.08725
585,1.088514,1.088547,1.093648,1.096276,1.101162,1.106099,1.110216,1.115476,1.116651,1.122219,1.123882,1.126292,1.129826,1.131777,1.130979,1.084432
586,1.087889,1.085437,1.089372,1.095157,1.099643,1.104089,1.108136,1.111088,1.115709,1.116454,1.122618,1.122969,1.126774,1.128319,1.130708,1.081555
587,1.082897,1.083685,1.087233,1.091877,1.09603,1.099633,1.1056,1.108048,1.112433,1.116675,1.118549,1.122001,1.125364,1.125782,1.1272,1.079799
588,1.079622,1.080038,1.08352,1.088962,1.092367,1.098724,1.101247,1.105347,1.107797,1.112493,1.115085,1.117509,1.121482,1.123488,1.125726,1.074199
589,1.075908,1.076257,1.081168,1.083411,1.089398,1.091889,1.098497,1.101658,1.1041,1.108338,1.111233,1.115139,1.117827,1.120454,1.12128,1.070956
590,1.071907,1.071394,1.074935,1.080316,1.085677,1.088748,1.093297,1.096762,1.102196,1.105485,1.108505,1.111863,1.115086,1.115463,1.118759,1.070416
591,1.068944,1.06896,1.070607,1.077058,1.080598,1.085507,1.088364,1.094365,1.097165,1.101448,1.104285,1.107723,1.109056,1.111586,1.11277,1.065306
592,1.065245,1.06489,1.068553,1.072118,1.075975,1.080856,1.085779,1.089147,1.093371,1.096529,1.099242,1.101632,1.105786,1.106973,1.109921,1.060111
593,1.061152,1.059773,1.064501,1.067955,1.073151,1.075516,1.079313,1.084791,1.087953,1.091449,1.095624,1.098652,1.101579,1.104437,1.104937,1.056515
594,1.057742,1.056408,1.060281,1.06289,1.068,1.072689,1.075502,1.080009,1.084966,1.089546,1.089911,1.093961,1.096877,1.099991,1.103818,1.052015
595,1.052202,1.051642,1.05519,1.059467,1.065192,1.068903,1.073365,1.078505,1.079725,1.083548,1.087569,1.090765,1.093843,1.096675,1.100111,1.048397
596,1.050042,1.049246,1.053828,1.057058,1.060995,1.06583,1.070094,1.074586,1.07781,1.080172,1.085045,1.08756,1.091855,1.093365,1.095412,1.044079
597,1.047941,1.047328,1.050769,1.055789,1.059691,1.06342,1.066836,1.07178,1.075048,1.078996,1.083398,1.086353,1.08904,1.091833,1.093112,1.043275
598,1.044716,1.043411,1.046207,1.052025,1.054202,1.060019,1.065798,1.070976,1.072342,1.0752,1.080034,1.085251,1.08555,1.089048,1.090483,1.038353
599,1.041827,1.042781,1.047051,1.047343,1.052993,1.056428,1.062025,1.066396,1.069193,1.072731,1.076991,1.080664,1.084233,1.087762,1.086824,1.036852
600,1.038906,1.038397,1.042313,1.044238,1.049721,1.053316,1.057867,1.061254,1.066453,1.06886,1.072531,1.07682,1.079708,1.084107,1.086248,1.034716
601,1.037653,1.036775,1.03854,1.044008,1.048117,1.051963,1.054998,1.059404,1.065665,1.068492,1.071926,1.074724,1.078761,1.080787,1.083035,1.031517
602,1.033373,1.033404,1.037445,1.04006,1.046602,1.048226,1.054373,1.057022,1.060839,1.065071,1.069639,1.07141,1.076634,1.078754,1.08148,1.029054
603,1.032751,1.030837,1.034114,1.039576,1.04171,1.047071,1.051477,1.055637,1.059859,1.062277,1.065744,1.069374,1.072519,1.075729,1.080529,1.026538
604,1.028368,1.027897,1.032357,1.035566,1.03786,1.043021,1.0482,1.054042,1.054238,1.061613,1.064395,1.068915,1.069858,1.073612,1.074258,1.024119
605,1.026785,1.025002,1.028837,1.031787,1.037467,1.040501,1.045433,1.048205,1.052653,1.056481,1.061237,1.06509,1.069739,1.07103,1.072364,1.022147
606,1.020733,1.022446,1.024679,1.029,1.032212,1.036551,1.041257,1.044357,1.048877,1.052943,1.056532,1.060931,1.064686,1.067066,1.0679,1.017556
607,1.018179,1.018301,1.019653,1.022106,1.028732,1.032742,1.036631,1.041698,1.043863,1.050647,1.05165,1.056156,1.059971,1.063753,1.063929,1.01276
608,1.014266,1.013266,1.015811,1.021222,1.025658,1.030404,1.032802,1.036322,1.04139,1.04466,1.046358,1.050908,1.055267,1.059122,1.060943,1.008243
609,1.00975,1.011336,1.014453,1.016988,1.021579,1.024804,1.030299,1.032391,1.039395,1.040656,1.045109,1.048423,1.051916,1.054981,1.057509,1.008227
610,1.007683,1.005507,1.01041,1.01344,1.016995,1.020707,1.025256,1.029773,1.032636,1.03683,1.038914,1.045944,1.04765,1.051198,1.05355,1.001978
611,1.003297,1.002595,1.00467,1.009343,1.012658,1.016519,1.020718,1.024403,1.02875,1.032882,1.035794,1.039656,1.044142,1.048751,1.048573,0.999153
612,0.999076,0.998665,1.004011,1.006166,1.008736,1.011359,1.017074,1.019926,1.024164,1.027668,1.032924,1.036137,1.041103,1.042763,1.046034,0.994556
613,0.995207,0.99271,0.996796,0.998539,1.004182,1.007251,1.011476,1.017447,1.019686,1.023821,1.025195,1.030952,1.034289,1.038283,1.039577,0.988803
614,0.990312,0.991197,0.993811,0.994471,0.997281,1.002472,1.008141,1.011109,1.014263,1.018834,1.022316,1.026802,1.02969,1.03176,1.035241,0.98511
615,0.986211,0.985581,0.985687,0.993577,0.994297,0.998818,1.001668,1.006629,1.010155,1.012639,1.018515,1.022507,1.025538,1.029073,1.03025,0.981004
616,0.98161,0.980628,0.982354,0.986759,0.990894,0.992665,0.99742,1.000954,1.004908,1.008505,1.01242,1.016638,1.019246,1.025753,1.024769,0.976732
617,0.977341,0.976038,0.977602,0.98153,0.985963,0.988968,0.994269,0.994415,1.000128,1.004765,1.009029,1.01152,1.016123,1.020174,1.021495,0.97254
618,0.97252,0.972342,0.973785,0.976233,0.980113,0.984835,0.988535,0.992527,0.994667,0.999004,1.003733,1.006686,1.012164,1.014753,1.015041,0.969615
619,0.970584,0.970506,0.97147,0.975177,0.976632,0.981208,0.984985,0.988378,0.99362,0.995529,0.998049,1.00264,1.006969,1.009876,1.013141,0.96554
620,0.967503,0.965326,0.969301,0.970313,0.97272,0.975535,0.981843,0.984442,0.989225,0.991779,0.996821,0.9998,1.003743,1.009452,1.009102,0.961565
621,0.963528,0.963498,0.965263,0.96681,0.970396,0.974052,0.976862,0.981156,0.983824,0.990013,0.994079,0.996899,1.000405,1.00244,1.006303,0.958727
622,0.962786,0.959708,0.963642,0.96301,0.96847,0.970896,0.976636,0.977396,0.980816,0.984835,0.988031,0.993318,0.996659,1.000519,1.003736,0.955976
623,0.957576,0.95675,0.960366,0.962981,0.963938,0.966463,0.970976,0.976066,0.978056,0.983076,0.986284,0.991151,0.99496,0.994696,0.998645,0.951057
624,0.953395,0.952998,0.954455,0.957795,0.96112,0.963663,0.967346,0.969626,0.973539,0.977936,0.981922,0.986674,0.988302,0.993137,0.995531,0.949613
625,0.951514,0.950139,0.953001,0.954129,0.956869,0.959339,0.963945,0.968439,0.970351,0.97405,0.977408,0.981574,0.987125,0.990647,0.991867,0.947626
626,0.945854,0.947567,0.950136,0.950088,0.95325,0.957276,0.959804,0.963753,0.968284,0.971492,0.975773,0.977916,0.980868,0.986433,0.987479,0.944304
627,0.945899,0.94458,0.945462,0.948376,0.949969,0.950949,0.957053,0.960647,0.964186,0.968674,0.971864,0.974785,0.978947,0.978933,0.984,0.938622
628,0.941181,0.938651,0.940676,0.944208,0.946209,0.948543,0.953283,0.956015,0.960336,0.964458,0.966332,0.97027,0.971813,0.977948,0.980551,0.935775
629,0.937711,0.936359,0.937836,0.940148,0.941365,0.942882,0.947915,0.951187,0.954798,0.958637,0.961801,0.96489,0.969853,0.972181,0.975509,0.932955
630,0.931397,0.930613,0.931447,0.937193,0.936465,0.93986,0.943871,0.946537,0.949488,0.952883,0.955196,0.960332,0.964233,0.96728,0.97056,0.927
631,0.929888,0.925792,0.928726,0.93093,0.933756,0.934554,0.938826,0.943478,0.946802,0.947701,0.953531,0.956809,0.959783,0.965312,0.967201,0.925403
632,0.924222,0.923595,0.92592,0.927079,0.929114,0.932107,0.934024,0.937165,0.941198,0.944227,0.948013,0.952392,0.955196,0.95949,0.960734,0.919185
633,0.919902,0.919267,0.92216,0.924531,0.924459,0.931748,0.931055,0.936155,0.9372,0.941841,0.945452,0.949508,0.95234,0.956109,0.956606,0.917259
634,0.917178,0.916456,0.918729,0.91839,0.920369,0.924686,0.926335,0.930009,0.931826,0.936273,0.940418,0.941977,0.946914,0.950504,0.951842,0.91254
635,0.913528,0.911025,0.911872,0.913718,0.916739,0.917947,0.921211,0.92362,0.926835,0.931343,0.933638,0.938639,0.940516,0.945869,0.945844,0.908139
636,0.913035,0.909158,0.912776,0.911795,0.915547,0.916092,0.919656,0.922147,0.926105,0.931257,0.932119,0.935092,0.938902,0.944851,0.946018,0.904508
637,0.906506,0.904491,0.906625,0.906967,0.907981,0.911318,0.913068,0.9171,0.918186,0.922457,0.926497,0.930258,0.932272,0.933873,0.937804,0.900112
638,0.901168,0.899432,0.899739,0.902978,0.903608,0.904507,0.907648,0.911298,0.912739,0.916561,0.920016,0.922758,0.926094,0.930406,0.934039,0.894664
639,0.896697,0.893011,0.894236,0.896282,0.898272,0.900883,0.902654,0.904786,0.906631,0.911881,0.913832,0.91873,0.92218,0.925063,0.925113,0.891675
640,0.891857,0.891366,0.890598,0.892443,0.894301,0.8966,0.898524,0.900918,0.904554,0.904896,0.911936,0.913138,0.917386,0.921199,0.921895,0.887257
641,0.888083,0.887828,0.8869,0.888981,0.889781,0.892159,0.894506,0.898091,0.900149,0.902199,0.905765,0.908545,0.913626,0.917019,0.917057,0.883386
642,0.884013,0.882643,0.884069,0.88363,0.885897,0.889201,0.89121,0.891538,0.896412,0.896713,0.901761,0.904483,0.909118,0.911418,0.913052,0.879382
643,0.880126,0.879033,0.880737,0.880622,0.881789,0.88312,0.886255,0.889098,0.891062,0.892408,0.897372,0.901238,0.902558,0.908211,0.909113,0.87463
644,0.877962,0.875206,0.87719,0.876979,0.878289,0.879592,0.882185,0.883994,0.887941,0.889568,0.893906,0.896141,0.899794,0.903403,0.905813,0.872364
645,0.875777,0.875266,0.875464,0.87698,0.877446,0.878648,0.880729,0.884168,0.886478,0.88995,0.890914,0.895836,0.89821,0.902528,0.903725,0.870577
646,0.874945,0.871469,0.873294,0.873476,0.874882,0.878244,0.878555,0.883265,0.885322,0.887241,0.890811,0.893167,0.895856,0.89899,0.900334,0.86919
647,0.873516,0.872617,0.873474,0.874991,0.875583,0.876644,0.876384,0.881017,0.881721,0.885924,0.887732,0.891553,0.894713,0.898591,0.899439,0.87077
648,0.871441,0.871002,0.870054,0.873208,0.870053,0.872633,0.8742,0.879212,0.878411,0.88422,0.886016,0.888721,0.893462,0.895197,0.898284,0.865989
649,0.871921,0.868334,0.869846,0.868366,0.871416,0.872121,0.873535,0.875544,0.878146,0.880698,0.884823,0.887936,0.890518,0.893921,0.894641,0.864981
650,0.866955,0.867037,0.867846,0.868058,0.867661,0.869679,0.869351,0.873369,0.875019,0.879062,0.88022,0.883205,0.888111,0.892147,0.892985,0.863629
651,0.865465,0.864163,0.866013,0.864836,0.865858,0.867702,0.869997,0.869482,0.873453,0.875062,0.87793,0.881847,0.883654,0.888779,0.891779,0.860085
652,0.864104,0.860856,0.861494,0.862159,0.862963,0.86277,0.865147,0.866947,0.870887,0.87257,0.875466,0.879572,0.882054,0.884858,0.885503,0.859637
653,0.858055,0.856908,0.856568,0.857872,0.858118,0.860153,0.860792,0.863165,0.864906,0.869671,0.870521,0.874592,0.87651,0.880574,0.8813,0.853253
654,0.855161,0.855794,0.856243,0.855868,0.855446,0.856792,0.857893,0.860569,0.862087,0.864695,0.869678,0.870703,0.873521,0.876679,0.878327,0.851429
655,0.851819,0.850977,0.851339,0.85103,0.851669,0.852144,0.852456,0.85554,0.857803,0.859512,0.863929,0.86576,0.868072,0.871063,0.873544,0.847611
656,0.848504,0.848113,0.847451,0.849397,0.84734,0.848242,0.850691,0.85223,0.854583,0.855822,0.860267,0.862766,0.866711,0.86776,0.869434,0.84457
657,0.846509,0.845381,0.84403,0.843646,0.844827,0.843578,0.845808,0.848173,0.850305,0.851942,0.855432,0.857558,0.861508,0.866394,0.865191,0.842141
658,0.84143,0.841383,0.840752,0.841302,0.838831,0.839767,0.84347,0.845042,0.845342,0.849726,0.85067,0.853317,0.858028,0.8597,0.861168,0.837347
659,0.83867,0.837365,0.836703,0.835878,0.835687,0.838252,0.837636,0.84068,0.84145,0.845485,0.846761,0.84929,0.851104,0.856539,0.857168,0.832911
660,0.837922,0.835503,0.83671,0.834263,0.83593,0.837709,0.836332,0.837355,0.841061,0.843503,0.8456,0.850835,0.850853,0.851646,0.857021,0.832461
661,0.835345,0.83412,0.83437,0.834168,0.833445,0.833804,0.833625,0.832092,0.835153,0.838978,0.840648,0.844131,0.844881,0.850448,0.850742,0.829272
662,0.832963,0.831321,0.827384,0.831006,0.82848,0.826142,0.830029,0.829847,0.832902,0.834992,0.838173,0.840085,0.843606,0.845922,0.846835,0.826145
663,0.827682,0.825965,0.825068,0.825836,0.824622,0.824857,0.825486,0.827816,0.830819,0.829654,0.833878,0.837067,0.838578,0.841255,0.845352,0.823871
664,0.825616,0.822798,0.82387,0.822122,0.821525,0.821601,0.822023,0.824137,0.825449,0.826058,0.828273,0.831698,0.834805,0.836311,0.838938,0.819243
665,0.823141,0.821836,0.820393,0.818152,0.819875,0.820936,0.820123,0.823208,0.823216,0.825857,0.828076,0.830032,0.833683,0.835172,0.837871,0.816546
666,0.820583,0.820056,0.820011,0.817333,0.817067,0.816997,0.818783,0.818597,0.820808,0.821883,0.822943,0.82745,0.828955,0.830502,0.834812,0.815189
667,0.81998,0.816852,0.81703,0.81539,0.815545,0.814679,0.816254,0.81704,0.818375,0.81749,0.82277,0.825595,0.827535,0.829157,0.830174,0.814095
668,0.817869,0.815382,0.81277,0.812472,0.813029,0.81255,0.814293,0.812632,0.816598,0.817998,0.82002,0.821717,0.823803,0.826897,0.828425,0.810572
669,0.814879,0.810357,0.809836,0.810543,0.809739,0.808862,0.811812,0.810714,0.8113,0.815668,0.814699,0.818149,0.817744,0.823858,0.824982,0.807343
670,0.811885,0.810973,0.812222,0.811879,0.811015,0.80845,0.810154,0.809923,0.811259,0.811429,0.815511,0.816984,0.819373,0.821038,0.823988,0.808675
671,0.808242,0.806631,0.80489,0.805955,0.803593,0.804494,0.804603,0.806119,0.805633,0.810666,0.808651,0.813158,0.813407,0.816053,0.816863,0.805143
672,0.804981,0.803407,0.801155,0.802891,0.798323,0.800431,0.797945,0.800274,0.800498,0.804496,0.805604,0.805839,0.810432,0.81519,0.814729,0.798237
673,0.802877,0.799212,0.799754,0.799859,0.794773,0.797277,0.796024,0.798541,0.800266,0.799388,0.801664,0.804684,0.805482,0.809128,0.810657,0.798194
674,0.798624,0.796656,0.796544,0.793916,0.791845,0.791651,0.791999,0.795792,0.794415,0.795994,0.796689,0.798293,0.803648,0.803422,0.804602,0.792519
675,0.793601,0.790496,0.793336,0.787912,0.786277,0.787086,0.789108,0.789475,0.789174,0.790243,0.791331,0.794728,0.797148,0.799484,0.800716,0.789301
676,0.791895,0.78856,0.787548,0.784574,0.784459,0.783712,0.781344,0.784692,0.783875,0.787261,0.787552,0.78964,0.791462,0.795922,0.797214,0.783431
677,0.786609,0.784891,0.78448,0.783215,0.784163,0.781082,0.781211,0.782371,0.786544,0.785396,0.783415,0.788022,0.789575,0.789102,0.793692,0.782176
678,0.788873,0.783777,0.786436,0.783429,0.780808,0.777614,0.779496,0.780266,0.780219,0.781523,0.78379,0.787343,0.788045,0.791755,0.792085,0.78179
679,0.784253,0.782225,0.781233,0.780663,0.779351,0.777244,0.775231,0.775332,0.777541,0.778098,0.780229,0.784275,0.785247,0.786427,0.788215,0.778615
680,0.77953,0.779829,0.776407,0.775833,0.773717,0.773631,0.771785,0.773073,0.771808,0.776283,0.77454,0.777129,0.777331,0.780354,0.784376,0.773666
681,0.780495,0.776769,0.777062,0.774039,0.77161,0.771194,0.772885,0.770125,0.771262,0.772859,0.772506,0.775805,0.77579,0.78071,0.782998,0.774657
682,0.778707,0.774407,0.770562,0.769593,0.767575,0.76679,0.769139,0.767149,0.766952,0.769309,0.766766,0.772262,0.772882,0.7767,0.775858,0.773947
683,0.774236,0.772998,0.769914,0.767499,0.76999,0.7639,0.764241,0.764235,0.763006,0.76657,0.768037,0.769377,0.770097,0.770544,0.774197,0.767758
684,0.770971,0.764412,0.765481,0.767235,0.764481,0.759504,0.757137,0.760802,0.760969,0.763496,0.764836,0.767474,0.763902,0.767802,0.76765,0.767463
685,0.766391,0.766262,0.762966,0.760727,0.758972,0.756271,0.756804,0.756994,0.758554,0.757932,0.760079,0.76051,0.765628,0.765734,0.767197,0.762722
686,0.766011,0.761573,0.760785,0.759795,0.756512,0.752328,0.753326,0.751938,0.754466,0.753473,0.756011,0.758716,0.755742,0.76285,0.762574,0.762133
687,0.761707,0.757403,0.756651,0.756805,0.752774,0.750603,0.750382,0.749604,0.749763,0.750859,0.750557,0.754878,0.756086,0.756556,0.755171,0.758591
688,0.75925,0.755362,0.756506,0.75438,0.749007,0.748585,0.747084,0.748166,0.748699,0.747604,0.749742,0.74682,0.754183,0.756472,0.752329,0.75328
689,0.756442,0.754026,0.750432,0.748646,0.746553,0.74606,0.74469,0.740866,0.74598,0.741733,0.747706,0.74583,0.750121,0.749633,0.749978,0.751461
690,0.756047,0.748965,0.750513,0.745216,0.745491,0.744962,0.740824,0.74176,0.741157,0.742699,0.742898,0.744496,0.746389,0.748225,0.746711,0.746844
691,0.748168,0.74702,0.747666,0.744354,0.740616,0.736623,0.736186,0.73743,0.736025,0.739177,0.737555,0.737641,0.741444,0.742435,0.744936,0.744975
692,0.749829,0.746915,0.747188,0.743613,0.739671,0.740538,0.736554,0.735122,0.73604,0.739473,0.738191,0.737406,0.740123,0.742453,0.744234,0.744685
693,0.745661,0.743495,0.740622,0.740777,0.740819,0.736347,0.734148,0.732018,0.731282,0.734048,0.731803,0.735532,0.733729,0.737522,0.739958,0.742324
694,0.744455,0.743626,0.739927,0.737154,0.734573,0.732081,0.731961,0.73123,0.731371,0.731702,0.729915,0.732545,0.73378,0.738634,0.740374,0.739134
695,0.741826,0.740955,0.738786,0.734317,0.732812,0.729728,0.72727,0.725498,0.722824,0.730372,0.726869,0.728472,0.729553,0.734409,0.732249,0.735881
696,0.739201,0.736555,0.737278,0.733821,0.730127,0.731234,0.725709,0.726943,0.723122,0.723191,0.72587,0.729994,0.728181,0.731572,0.73131,0.736167
697,0.734493,0.736358,0.732074,0.732489,0.725946,0.723999,0.722372,0.719572,0.720486,0.722678,0.722199,0.723129,0.723716,0.725331,0.725538,0.73186
698,0.737074,0.734462,0.731768,0.727282,0.72544,0.720115,0.718677,0.719665,0.720517,0.720166,0.722443,0.718771,0.72391,0.723432,0.726374,0.731215
699,0.731774,0.73204,0.729561,0.723241,0.722086,0.719937,0.718029,0.71503,0.715668,0.71573,0.715473,0.715388,0.717664,0.721235,0.720624,0.72741
700,0.729489,0.728805,0.728729,0.72255,0.720185,0.718834,0.714801,0.717537,0.714455,0.716218,0.713349,0.715005,0.717745,0.718168,0.71889,0.727769
701,0.726466,0.726253,0.724662,0.7221,0.716882,0.714198,0.713003,0.711684,0.712993,0.710616,0.712781,0.711441,0.715255,0.717735,0.715382,0.722501
702,0.726941,0.723413,0.721812,0.71784,0.714713,0.714235,0.710517,0.70947,0.710142,0.709821,0.712049,0.709542,0.709379,0.713126,0.715682,0.719846
703,0.725212,0.721478,0.719329,0.718825,0.713017,0.709924,0.708689,0.707152,0.70436,0.706327,0.705202,0.707631,0.706406,0.707336,0.710799,0.718327
704,0.721794,0.720574,0.71872,0.712315,0.709072,0.707898,0.705229,0.70529,0.703886,0.703377,0.703608,0.704259,0.705522,0.707804,0.707837,0.717606
705,0.720176,0.718554,0.715537,0.71318,0.707862,0.706691,0.702193,0.70066,0.703166,0.70101,0.700952,0.703697,0.705071,0.704008,0.704422,0.717536
706,0.720225,0.718726,0.714382,0.711275,0.707485,0.705882,0.702444,0.700069,0.701026,0.701985,0.70054,0.701819,0.700233,0.702881,0.701205,0.716118
707,0.717869,0.715335,0.712226,0.709827,0.704748,0.70203,0.700462,0.697757,0.697408,0.697863,0.696232,0.696483,0.698564,0.699228,0.701739,0.712786
708,0.712925,0.711966,0.709675,0.706186,0.702426,0.700033,0.698759,0.695853,0.696177,0.694257,0.696421,0.695603,0.69744,0.696704,0.698184,0.710634
709,0.71357,0.710229,0.708799,0.706405,0.701015,0.698689,0.696556,0.694497,0.694979,0.691753,0.693624,0.694284,0.694583,0.696488,0.695901,0.709816
710,0.713331,0.713393,0.707707,0.704087,0.700944,0.695976,0.696992,0.695691,0.694265,0.692546,0.691653,0.692959,0.693527,0.694613,0.693788,0.709421
711,0.709809,0.711046,0.704948,0.701281,0.699154,0.69442,0.694288,0.688918,0.689976,0.691104,0.687191,0.691856,0.691219,0.688402,0.693494,0.708311
712,0.712716,0.708242,0.708184,0.702725,0.698901,0.693938,0.694095,0.691145,0.68994,0.690131,0.687155,0.690224,0.688767,0.694506,0.691225,0.707425
713,0.710477,0.705815,0.703275,0.700492,0.694761,0.694749,0.690776,0.685452,0.687228,0.684931,0.687643,0.687232,0.685485,0.689824,0.689576,0.705796
714,0.710282,0.705156,0.705158,0.702688,0.693067,0.69326,0.693764,0.689534,0.687542,0.686744,0.686052,0.684589,0.690002,0.68753,0.690929,0.703603
715,0.707398,0.705821,0.703606,0.696459,0.692594,0.691492,0.686894,0.686412,0.685105,0.683994,0.683025,0.684073,0.687376,0.685307,0.685493,0.704354
716,0.708922,0.705074,0.702935,0.698908,0.694834,0.686993,0.687292,0.688819,0.685366,0.683889,0.68402,0.682567,0.685272,0.683314,0.683632,0.701216
717,0.708627,0.705948,0.704749,0.700819,0.696685,0.691582,0.687566,0.689223,0.684733,0.685693,0.685222,0.685075,0.687868,0.689279,0.682506,0.703349
718,0.707473,0.706232,0.705468,0.696194,0.694318,0.688328,0.686817,0.686487,0.683131,0.685657,0.678683,0.684096,0.6854,0.683466,0.682153,0.704083
719,0.707353,0.704653,0.700252,0.695691,0.694683,0.688879,0.681918,0.684942,0.682361,0.683138,0.678842,0.677247,0.679877,0.682243,0.681904,0.705535
720,0.706645,0.699716,0.697422,0.695354,0.690174,0.687439,0.683144,0.680214,0.681539,0.676743,0.675759,0.67999,0.680189,0.679114,0.679105,0.699698
721,0.699807,0.700667,0.699352,0.69356,0.689768,0.68429,0.681189,0.680057,0.675075,0.6763,0.677137,0.678851,0.67725,0.675954,0.675241,0.695834
722,0.704656,0.701743,0.698026,0.693214,0.686391,0.688406,0.679788,0.678955,0.677853,0.675493,0.679062,0.676833,0.677985,0.676023,0.675535,0.698415
723,0.701517,0.701257,0.696007,0.692282,0.689305,0.683478,0.683215,0.680165,0.673936,0.675311,0.674106,0.674864,0.676176,0.677414,0.67661,0.698824
724,0.696419,0.6956,0.691331,0.684579,0.685136,0.676724,0.67643,0.670996,0.66954,0.667665,0.673219,0.670905,0.671951,0.671687,0.669958,0.692409
725,0.696514,0.695024,0.692036,0.685538,0.683644,0.679299,0.678752,0.672962,0.674697,0.670567,0.671704,0.672286,0.667482,0.669617,0.670419,0.693804
726,0.701001,0.697016,0.693216,0.692422,0.685301,0.680591,0.680593,0.675341,0.676226,0.670292,0.672174,0.671057,0.669765,0.674149,0.674159,0.696902
727,0.700128,0.69527,0.696524,0.690658,0.684979,0.681594,0.675051,0.678513,0.671778,0.669072,0.67046,0.66781,0.667881,0.671366,0.670008,0.692253
728,0.696833,0.69932,0.694805,0.686717,0.682745,0.679218,0.67794,0.675588,0.669426,0.669224,0.669051,0.668537,0.667014,0.668699,0.667898,0.696352
729,0.694486,0.691105,0.689769,0.684179,0.684282,0.675379,0.672954,0.669734,0.669292,0.67074,0.669759,0.665146,0.664916,0.665114,0.666723,0.697508
730,0.703145,0.697844,0.696883,0.691975,0.685634,0.68303,0.681255,0.676024,0.672206,0.674361,0.674997,0.671813,0.672097,0.67009,0.670857,0.696568
731,0.699478,0.696345,0.694006,0.692362,0.68768,0.680797,0.677392,0.673021,0.672306,0.676352,0.673158,0.670418,0.670853,0.670252,0.669889,0.699245
732,0.700234,0.699773,0.69116,0.687963,0.684404,0.681081,0.676357,0.673761,0.671952,0.669643,0.666501,0.672003,0.670344,0.666828,0.669075,0.691131
733,0.70329,0.700643,0.699845,0.694977,0.685184,0.68133,0.677127,0.678976,0.673096,0.676211,0.670946,0.670128,0.671118,0.672061,0.671024,0.698599
734,0.703359,0.701721,0.69336,0.691629,0.682266,0.684276,0.675922,0.679247,0.669663,0.671643,0.671214,0.667174,0.669868,0.670235,0.667907,0.693747
735,0.699872,0.698151,0.693468,0.692817,0.686229,0.677433,0.677375,0.677573,0.675798,0.663907,0.671478,0.669286,0.669258,0.670386,0.667777,0.697502
736,0.703668,0.705863,0.699456,0.695239,0.691768,0.685609,0.68313,0.679291,0.676696,0.672367,0.67133,0.671394,0.676165,0.671905,0.672605,0.697907
737,0.705298,0.700131,0.696106,0.69159,0.686886,0.685184,0.685337,0.675667,0.670569,0.676568,0.671221,0.670467,0.671085,0.670319,0.669304,0.698901
738,0.704058,0.701428,0.695166,0.692687,0.684091,0.685853,0.68214,0.675752,0.672545,0.672095,0.668433,0.66707,0.66942,0.67125,0.668572,0.696139
739,0.702033,0.696688,0.694562,0.691982,0.684273,0.682138,0.676694,0.671034,0.671544,0.670822,0.666867,0.671119,0.66973,0.667748,0.665392,0.698351
740,0.698067,0.698947,0.690792,0.690451,0.681849,0.673677,0.673527,0.676753,0.667566,0.66823,0.662424,0.669414,0.665326,0.664141,0.661002,0.695179
741,0.698163,0.695356,0.69141,0.691442,0.685961,0.681912,0.677371,0.671919,0.670862,0.667185,0.669716,0.665705,0.666448,0.66727,0.665502,0.697813
742,0.69311,0.69785,0.690873,0.687284,0.678495,0.672621,0.670577,0.670863,0.668615,0.665842,0.658276,0.661431,0.660825,0.661023,0.663014,0.69145
743,0.696805,0.69051,0.686325,0.683097,0.678139,0.672276,0.668327,0.662449,0.660512,0.656703,0.657237,0.658778,0.659327,0.659881,0.658146,0.688965
744,0.695985,0.696809,0.686404,0.682438,0.678425,0.671394,0.666934,0.668989,0.661881,0.658041,0.656058,0.655822,0.657197,0.660735,0.656091,0.691259
745,0.692838,0.68711,0.683781,0.676075,0.675302,0.670819,0.665747,0.665409,0.66214,0.661578,0.651902,0.656816,0.656879,0.653452,0.657087,0.689389
746,0.689476,0.686208,0.680116,0.674132,0.671692,0.662194,0.663967,0.660611,0.658496,0.651362,0.652244,0.647348,0.650733,0.650798,0.648012,0.684524
747,0.684471,0.684135,0.682297,0.678807,0.670828,0.666019,0.660009,0.659575,0.655777,0.658895,0.654271,0.651968,0.649513,0.650101,0.646833,0.685055
748,0.690217,0.683807,0.689017,0.674809,0.672939,0.669504,0.66387,0.658457,0.654438,0.653051,0.651434,0.655332,0.650221,0.652723,0.646138,0.686853
749,0.684042,0.684496,0.67727,0.672948,0.663951,0.661987,0.657758,0.656765,0.652282,0.65074,0.650372,0.64608,0.643295,0.645619,0.649396,0.682184
750,0.678183,0.681472,0.680641,0.670976,0.663549,0.664076,0.65662,0.64937,0.645157,0.65112,0.643411,0.648421,0.643187,0.641419,0.642201,0.676612
751,0.68222,0.679108,0.67767,0.668626,0.660864,0.660026,0.651917,0.652451,0.648553,0.643673,0.640101,0.646343,0.63786,0.636319,0.637885,0.675481
752,0.674666,0.67532,0.670762,0.666367,0.663232,0.655514,0.651673,0.64929,0.646597,0.643713,0.636799,0.632051,0.639632,0.639651,0.638694,0.673445
753,0.671289,0.676604,0.669573,0.664121,0.663211,0.649266,0.646481,0.645053,0.643116,0.64052,0.638319,0.634517,0.636558,0.635455,0.636412,0.674797
754,0.68177,0.678933,0.67231,0.663175,0.662016,0.653033,0.646897,0.64719,0.641931,0.646068,0.639263,0.634277,0.637186,0.636629,0.639018,0.672407
755,0.678588,0.678285,0.673887,0.66565,0.658706,0.645084,0.645074,0.646744,0.640447,0.639667,0.631269,0.637165,0.634613,0.637507,0.635541,0.662025
756,0.667826,0.669407,0.663955,0.658962,0.651341,0.646463,0.638189,0.635805,0.633414,0.635873,0.633906,0.632962,0.624596,0.625381,0.632548,0.666483
757,0.672188,0.670277,0.667773,0.661449,0.651104,0.648535,0.642906,0.637467,0.636121,0.634141,0.631348,0.632497,0.624788,0.633677,0.631175,0.668365
758,0.6654,0.666435,0.658822,0.65742,0.651794,0.646281,0.64077,0.639046,0.636203,0.633242,0.632028,0.629056,0.624897,0.630263,0.626206,0.673243
759,0.667252,0.667244,0.659276,0.657389,0.648824,0.64287,0.640287,0.63401,0.629443,0.627034,0.627074,0.630332,0.621248,0.623222,0.621658,0.666919
760,0.663979,0.66478,0.662996,0.658748,0.65239,0.644162,0.644066,0.634449,0.632505,0.632858,0.629015,0.624649,0.624492,0.621404,0.63138,0.662954
761,0.659061,0.659118,0.647936,0.649869,0.635743,0.63904,0.632345,0.635564,0.620644,0.626885,0.620408,0.623486,0.617209,0.614293,0.615071,0.658951
762,0.660235,0.662376,0.659374,0.650149,0.643687,0.638217,0.635278,0.63027,0.633962,0.624082,0.621972,0.622089,0.618404,0.620135,0.624838,0.660258
763,0.662055,0.654853,0.66034,0.651478,0.645251,0.642415,0.632379,0.632886,0.624385,0.622541,0.619508,0.623955,0.620607,0.618401,0.617898,0.662661
764,0.658634,0.659754,0.653586,0.652592,0.644081,0.634519,0.628548,0.622948,0.61868,0.615573,0.620384,0.617559,0.613298,0.612155,0.608503,0.656468
765,0.655755,0.650514,0.649396,0.641008,0.633605,0.628903,0.618419,0.623897,0.614859,0.614463,0.61151,0.604482,0.610951,0.606979,0.611925,0.653581
766,0.651207,0.652614,0.64164,0.640049,0.632954,0.626702,0.619841,0.61906,0.612339,0.60716,0.608261,0.608727,0.603884,0.607233,0.604529,0.645636
767,0.648722,0.643219,0.650683,0.637805,0.627321,0.623488,0.623818,0.608508,0.610628,0.606813,0.604697,0.60616,0.595617,0.602464,0.597214,0.645804
768,0.6544,0.655596,0.652319,0.649755,0.636603,0.629469,0.625399,0.61928,0.613678,0.615471,0.619204,0.612089,0.613615,0.611753,0.612375,0.653124
769,0.65235,0.643799,0.643227,0.638328,0.631323,0.626272,0.626521,0.614384,0.610052,0.605125,0.607445,0.605253,0.603418,0.60297,0.601444,0.639835
770,0.648501,0.646332,0.642909,0.630978,0.626937,0.622913,0.613915,0.606782,0.606376,0.603338,0.602089,0.596464,0.599798,0.598013,0.595448,0.642347
771,0.641891,0.639906,0.636535,0.632514,0.623863,0.619751,0.614777,0.609546,0.602843,0.595652,0.602733,0.600502,0.599313,0.589816,0.597397,0.639488
772,0.642015,0.645996,0.641171,0.627133,0.627927,0.619555,0.611651,0.610872,0.610346,0.607262,0.601774,0.599438,0.596046,0.599485,0.598302,0.641317
773,0.635421,0.636393,0.633453,0.620757,0.617129,0.614098,0.597326,0.603374,0.595376,0.587391,0.595122,0.589432,0.584082,0.593903,0.587025,0.640064
774,0.642562,0.630387,0.632859,0.624962,0.613518,0.613356,0.606403,0.598116,0.598346,0.595752,0.58968,0.593679,0.589797,0.5854,0.589879,0.634891
775,0.631107,0.633905,0.627469,0.621316,0.615573,0.605229,0.612455,0.602793,0.597242,0.594508,0.591607,0.587472,0.586377,0.5886,0.583493,0.633753
776,0.635875,0.631172,0.632499,0.620585,0.614831,0.611699,0.604238,0.59968,0.597022,0.59118,0.589177,0.588304,0.587853,0.592172,0.583981,0.629196
777,0.632676,0.63782,0.629388,0.625059,0.621677,0.61642,0.608941,0.604178,0.60003,0.599198,0.589434,0.586055,0.583874,0.583686,0.5866,0.626027
778,0.632893,0.631655,0.623657,0.61622,0.611369,0.610785,0.606418,0.593495,0.585692,0.591024,0.582533,0.584072,0.581609,0.58183,0.579122,0.626622
779,0.628978,0.621124,0.624538,0.622383,0.602464,0.602899,0.600948,0.58725,0.587819,0.588368,0.587047,0.575419,0.579146,0.583247,0.578509,0.625405
780,0.626509,0.623881,0.621207,0.612246,0.607577,0.599353,0.592926,0.590478,0.587156,0.580612,0.585199,0.578605,0.575034,0.578436,0.577196,0.620059
781,0.619287,0.623575,0.621028,0.611529,0.601964,0.596136,0.595153,0.592854,0.582603,0.58086,0.575394,0.578051,0.580968,0.576077,0.571634,0.625195
782,0.618108,0.615258,0.613139,0.607223,0.592998,0.587188,0.588315,0.578575,0.576246,0.569491,0.574389,0.572038,0.569382,0.565608,0.560306,0.621009
783,0.62081,0.615039,0.609442,0.609182,0.602075,0.589896,0.591085,0.583196,0.586629,0.573882,0.57801,0.565841,0.572078,0.56775,0.566618,0.621415
784,0.609943,0.610755,0.601316,0.599832,0.592094,0.589531,0.580328,0.579233,0.571713,0.571721,0.567586,0.563149,0.562131,0.564308,0.554617,0.604562
785,0.614339,0.613382,0.602797,0.60917,0.590153,0.593251,0.581023,0.57409,0.572051,0.572264,0.565969,0.565995,0.560568,0.559337,0.563234,0.615106
786,0.610879,0.607291,0.609177,0.603837,0.591011,0.583183,0.577382,0.576277,0.56653,0.569401,0.565629,0.559982,0.557134,0.55869,0.55904,0.605057
787,0.61029,0.61083,0.609085,0.593832,0.588385,0.583801,0.582577,0.574847,0.56885,0.56079,0.554492,0.562151,0.557187,0.557447,0.556772,0.606854
788,0.615051,0.601957,0.607085,0.593971,0.585157,0.582725,0.576685,0.574481,0.567197,0.561633,0.561089,0.551307,0.55637,0.555579,0.5492,0.60626
789,0.609506,0.607286,0.5968,0.59207,0.587063,0.584505,0.572361,0.573769,0.567387,0.5623,0.558661,0.556694,0.555132,0.55231,0.557092,0.60244
790,0.603691,0.598343,0.592972,0.586462,0.58337,0.567718,0.579767,0.56824,0.558979,0.5597,0.555834,0.556045,0.548655,0.548736,0.543825,0.599251
791,0.611717,0.592216,0.599213,0.590658,0.584139,0.57485,0.573464,0.568196,0.561261,0.563566,0.551642,0.541969,0.548543,0.547457,0.551333,0.598863
792,0.599777,0.604042,0.591075,0.581272,0.587655,0.572567,0.572508,0.563733,0.558769,0.556759,0.547713,0.547796,0.544385,0.54142,0.545953,0.599494
793,0.603355,0.605331,0.593942,0.587776,0.580348,0.570133,0.57036,0.563954,0.556438,0.560002,0.547273,0.548639,0.545873,0.541889,0.539937,0.599902
794,0.596097,0.58994,0.58771,0.579947,0.57762,0.560686,0.558243,0.544881,0.55234,0.545255,0.544517,0.54342,0.536188,0.538007,0.537675,0.584114
795,0.589214,0.586055,0.584013,0.581894,0.575707,0.568764,0.561719,0.552841,0.549349,0.550248,0.542454,0.544674,0.544074,0.537414,0.537324,0.589495
796,0.589727,0.597986,0.586827,0.574587,0.573861,0.56623,0.555647,0.547466,0.549502,0.540213,0.542831,0.544866,0.539327,0.535529,0.535088,0.594239
797,0.599502,0.594757,0.585332,0.581908,0.572572,0.561318,0.566984,0.561493,0.55551,0.55085,0.546857,0.532072,0.537057,0.533228,0.532548,0.591673
798,0.595498,0.594499,0.582252,0.579257,0.575832,0.565401,0.559428,0.559507,0.550865,0.553997,0.543023,0.544559,0.546227,0.537636,0.536941,0.588354
799,0.580961,0.588482,0.575258,0.569013,0.570323,0.556631,0.557315,0.544145,0.541524,0.535482,0.540456,0.539408,0.532666,0.527395,0.53194,0.575577
800,0.59111,0.580076,0.58182,0.575957,0.560216,0.556987,0.553478,0.543497,0.536447,0.544296,0.534336,0.529761,0.5301,0.526447,0.52487,0.578103
