EC-Lab ASCII FILE
Nb header lines : 66                          

Potentio Electrochemical Impedance Spectroscopy

Run on channel : 2 (SN 66414)
User : 
CE vs. WE compliance from -10 V to 10 V
Electrode connection : standard
Potential control : Ewe
Ewe ctrl range : min = -1.00 V, max = 1.00 V
Safety Limits :
	Do not start on E overload
Acquisition started on : 01/16/2024 20:18:24.614
Loaded Setting File :  C:\Users\NakamuraT\Documents\EC-Lab\Data\Yatsuzuka\20240115_2-95_CA_CV\20240115_2-95_001_CA_CV.mps
Saved on :
	File : 20240111_2-97_wait15min_CV_1_02_PEIS_C02.mpr
	Directory : C:\Users\NakamuraT\Documents\EC-Lab\Data\Yatsuzuka\20240116_2-97_wait_CV\
	Host : 192.109.209.100
Device : SP-150e (SN .003411)
Address : 192.109.209.236
EC-Lab for windows v11.50 (software)
Internet server v11.50 (firmware)
Command interpretor v11.50 (firmware)
Electrode material : 
Initial state : 
Electrolyte : 
Comments : 
Electrode surface area : 0.000 cm2
Characteristic mass : 0.001 g
Equivalent Weight : 0.000 g/eq.
Density : 0.000 g/cm3
Volume (V) : 0.001 cm3
Cycle Definition : Charge/Discharge alternance
Mode                Single sine         
E (V)               0.0000              
vs.                 Ref                 
tE (h:m:s)          0:00:0.0000         
record              0                   
dI                  0.000               
unit dI             mA                  
dt (s)              0.000               
fi                  1.000               
unit fi             MHz                 
ff                  100.000             
unit ff             mHz                 
Nd                  6                   
Points              per decade          
spacing             Logarithmic         
Va (mV)             10.0                
pw                  0.10                
Na                  2                   
corr                0                   
E range min (V)     -1.000              
E range max (V)     1.000               
I Range             10 mA               
Bandwidth           5                   
nc cycles           0                   
goto Ns'            0                   
nr cycles           0                   
inc. cycle          0                   

Number of loops : 1
Loop 0 from point number 0 to 42

freq/Hz	Re(Z)/Ohm	-Im(Z)/Ohm	|Z|/Ohm	Phase(Z)/deg	time/s	<Ewe>/V	<I>/mA	Cs/uF	Cp/uF	cycle number	I Range	|Ewe|/V	|I|/A	Ns	(Q-Qo)/mA.h	Re(Y)/Ohm-1	Im(Y)/Ohm-1	|Y|/Ohm-1	Phase(Y)/deg	Re(C)/nF	Im(C)/nF	|C|/nF	Phase(C)/deg	Re(M)	Im(M)	|M|	Phase(M)/deg	Re(Permittivity)	Im(Permittivity)	|Permittivity|	Phase(Permittivity)/deg	Re(Resistivity)/Ohm.cm	Im(Resistivity)/Ohm.cm	|Resistivity|/Ohm.cm	Phase(Resistivity)/deg	Re(Conductivity)/mS/cm	Im(Conductivity)/mS/cm	|Conductivity|/mS/cm	Phase(Conductivity)/deg	Tan(Delta)	Loss Angle(Delta)/deg	dq/mA.h	
1.0000186E+006	3.2026501E+001	5.0380814E+001	5.9698601E+001	-5.7556351E+001	1.073789180902531E+001	8.8273233E-004	1.9887902E-002	3.1589800E-003	2.2498260E-003	1.000000000000000E+000	11	2.6209049E-003	4.3902284E-005	0	1.889650739271625E-006	8.9863054E-003	1.4136335E-002	1.6750811E-002	5.7556351E+001	2.2498260E+000	1.4301884E+000	2.6659250E+000	-3.2443649E+001	0.0000000E+000	0.0000000E+000	0.0000000E+000	3.2443649E+001	0.0000000E+000	0.0000000E+000	0.0000000E+000	-3.2443649E+001	0.0000000E+000	0.0000000E+000	0.0000000E+000	-5.7556351E+001	0.0000000E+000	0.0000000E+000	0.0000000E+000	5.7556351E+001	6.3568842E-001	3.2443649E+001	1.889650739271625E-006
6.8129269E+005	3.7008995E+001	2.2456825E+001	4.3289429E+001	-3.1249113E+001	1.115988102910342E+001	4.2674268E-004	-5.1419935E-003	1.0402508E-002	2.7994395E-003	1.000000000000000E+000	11	5.3376192E-003	1.2330075E-004	0	1.158576765964325E-006	1.9748930E-002	1.1983527E-002	2.3100328E-002	3.1249113E+001	2.7994394E+000	4.6134939E+000	5.3964052E+000	-5.8750885E+001	0.0000000E+000	0.0000000E+000	0.0000000E+000	5.8750885E+001	0.0000000E+000	0.0000000E+000	0.0000000E+000	-5.8750885E+001	0.0000000E+000	0.0000000E+000	0.0000000E+000	-3.1249113E+001	0.0000000E+000	0.0000000E+000	0.0000000E+000	3.1249113E+001	1.6480066E+000	5.8750885E+001	-7.310739733073004E-007
4.6415716E+005	3.3679123E+001	3.9768982E+000	3.3913109E+001	-6.7344160E+000	1.144587877602316E+001	3.8138041E-004	-6.7418888E-003	8.6220510E-002	1.1856714E-003	1.000000000000000E+000	11	9.5358491E-003	2.8118477E-004	0	7.810730101159102E-007	2.9283673E-002	3.4578748E-003	2.9487122E-002	6.7344160E+000	1.1856710E+000	1.0041084E+001	1.0110846E+001	-8.3265587E+001	0.0000000E+000	0.0000000E+000	0.0000000E+000	8.3265587E+001	0.0000000E+000	0.0000000E+000	0.0000000E+000	-8.3265587E+001	0.0000000E+000	0.0000000E+000	0.0000000E+000	-6.7344160E+000	0.0000000E+000	0.0000000E+000	0.0000000E+000	6.7344160E+000	8.4686909E+000	8.3265587E+001	-3.775037558484149E-007
3.1622997E+005	2.5018391E+001	-1.8573935E+000	2.5087244E+001	4.2459135E+000	1.186788367602276E+001	2.6336373E-004	-9.2210006E-003	-2.7096498E-001	-1.4853032E-003	1.000000000000000E+000	11	1.0236885E-002	4.0805142E-004	0	-7.834408422543978E-007	3.9751496E-002	-2.9511957E-003	3.9860897E-002	-4.2459135E+000	-1.4853021E+000	2.0006475E+001	2.0061535E+001	-9.4245911E+001	0.0000000E+000	0.0000000E+000	0.0000000E+000	9.4245911E+001	0.0000000E+000	0.0000000E+000	0.0000000E+000	-9.4245911E+001	0.0000000E+000	0.0000000E+000	0.0000000E+000	4.2459135E+000	0.0000000E+000	0.0000000E+000	0.0000000E+000	-4.2459135E+000	1.3469624E+001	8.5754089E+001	-1.564513852370308E-006
2.1544686E+005	2.0670017E+001	-1.7226497E+000	2.0741676E+001	4.7640495E+000	1.228987172275083E+001	2.1705125E-004	-8.0183716E-003	-4.2882785E-001	-2.9579392E-003	1.000000000000000E+000	11	1.0539142E-002	5.0811429E-004	0	-1.097864635705870E-006	4.8045546E-002	-4.0041399E-003	4.8212111E-002	-4.7640495E+000	-2.9579411E+000	3.5492214E+001	3.5615257E+001	-9.4764053E+001	0.0000000E+000	0.0000000E+000	0.0000000E+000	9.4764053E+001	0.0000000E+000	0.0000000E+000	0.0000000E+000	-9.4764053E+001	0.0000000E+000	0.0000000E+000	0.0000000E+000	4.7640495E+000	0.0000000E+000	0.0000000E+000	0.0000000E+000	-4.7640495E+000	1.1998967E+001	8.5235947E+001	-3.144237934514725E-007
1.4677664E+005	1.9139250E+001	-8.8054007E-001	1.9159494E+001	2.6341512E+000	1.271188995614648E+001	2.2472654E-004	-5.3477064E-003	-1.2314423E+000	-2.6010233E-003	1.000000000000000E+000	11	1.0582225E-002	5.5232277E-004	0	-8.959919028016480E-007	5.2138295E-002	-2.3987282E-003	5.2193444E-002	-2.6341512E+000	-2.6010194E+000	5.6535339E+001	5.6595139E+001	-9.2634148E+001	0.0000000E+000	0.0000000E+000	0.0000000E+000	9.2634148E+001	0.0000000E+000	0.0000000E+000	0.0000000E+000	-9.2634148E+001	0.0000000E+000	0.0000000E+000	0.0000000E+000	2.6341512E+000	0.0000000E+000	0.0000000E+000	0.0000000E+000	-2.6341512E+000	2.1735807E+001	8.7365852E+001	2.018727329042223E-007
1.0000371E+005	1.8693151E+001	-4.1227198E-001	1.8697697E+001	1.2634369E+000	1.313387717615115E+001	2.3737583E-004	-3.4223434E-003	-3.8602922E+000	-1.8767724E-003	1.000000000000000E+000	11	1.0569728E-002	5.6529575E-004	0	-6.169516721565742E-007	5.3469524E-002	-1.1792547E-003	5.3482525E-002	-1.2634369E+000	-1.8767703E+000	8.5096230E+001	8.5116920E+001	-9.1263435E+001	0.0000000E+000	0.0000000E+000	0.0000000E+000	9.1263435E+001	0.0000000E+000	0.0000000E+000	0.0000000E+000	-9.1263435E+001	0.0000000E+000	0.0000000E+000	0.0000000E+000	1.2634369E+000	0.0000000E+000	0.0000000E+000	0.0000000E+000	-1.2634369E+000	4.5341797E+001	8.8736565E+001	2.790402306450739E-007
6.8132047E+004	1.8510067E+001	-2.1129623E-001	1.8511272E+001	6.5401471E-001	1.355588596954476E+001	2.3581098E-004	-2.5242881E-003	-1.1055463E+001	-1.4404159E-003	1.000000000000000E+000	11	1.0531604E-002	5.6892924E-004	0	-1.709327491997909E-006	5.4017618E-002	-6.1662222E-004	5.4021139E-002	-6.5401471E-001	-1.4404155E+000	1.2618395E+002	1.2619218E+002	-9.0654015E+001	0.0000000E+000	0.0000000E+000	0.0000000E+000	9.0654015E+001	0.0000000E+000	0.0000000E+000	0.0000000E+000	-9.0654015E+001	0.0000000E+000	0.0000000E+000	0.0000000E+000	6.5401471E-001	0.0000000E+000	0.0000000E+000	0.0000000E+000	-6.5401471E-001	8.7602448E+001	8.9345985E+001	-1.092375819841335E-006
4.6420355E+004	1.8469645E+001	-1.1037850E-001	1.8469975E+001	3.4240761E-001	1.397788950958056E+001	2.4549823E-004	-1.9880659E-003	-3.1061840E+001	-1.1093372E-003	1.000000000000000E+000	11	1.0536100E-002	5.7044474E-004	0	-1.369841949635884E-006	5.4140959E-002	-3.2355782E-004	5.4141928E-002	-3.4240761E-001	-1.1093359E+000	1.8562549E+002	1.8562880E+002	-9.0342407E+001	0.0000000E+000	0.0000000E+000	0.0000000E+000	9.0342407E+001	0.0000000E+000	0.0000000E+000	0.0000000E+000	-9.0342407E+001	0.0000000E+000	0.0000000E+000	0.0000000E+000	3.4240761E-001	0.0000000E+000	0.0000000E+000	0.0000000E+000	-3.4240761E-001	1.6733009E+002	8.9657593E+001	3.394855423620256E-007
3.1621139E+004	1.8456556E+001	-5.6479126E-002	1.8456642E+001	1.7533095E-001	1.439988075633300E+001	2.4970845E-004	-2.0438342E-003	-8.9115791E+001	-8.3449786E-004	1.000000000000000E+000	11	1.0526582E-002	5.7034113E-004	0	-2.011489325316183E-006	5.4180782E-002	-1.6579925E-004	5.4181036E-002	-1.7533095E-001	-8.3449870E-001	2.7270175E+002	2.7270303E+002	-9.0175331E+001	0.0000000E+000	0.0000000E+000	0.0000000E+000	9.0175331E+001	0.0000000E+000	0.0000000E+000	0.0000000E+000	-9.0175331E+001	0.0000000E+000	0.0000000E+000	0.0000000E+000	1.7533095E-001	0.0000000E+000	0.0000000E+000	0.0000000E+000	-1.7533095E-001	3.2678543E+002	8.9824669E+001	-6.416473756802995E-007
2.1544684E+004	1.8458931E+001	-1.9839501E-002	1.8458942E+001	6.1580986E-002	1.482288709637942E+001	2.4000257E-004	-2.0501753E-003	-3.7234821E+002	-4.3012743E-004	1.000000000000000E+000	11	1.0465764E-002	5.6697527E-004	0	-2.959981895453287E-006	5.4174256E-002	-5.8226022E-005	5.4174285E-002	-6.1580986E-002	-4.3015179E-001	4.0019620E+002	4.0019644E+002	-9.0061584E+001	0.0000000E+000	0.0000000E+000	0.0000000E+000	9.0061584E+001	0.0000000E+000	0.0000000E+000	0.0000000E+000	-9.0061584E+001	0.0000000E+000	0.0000000E+000	0.0000000E+000	6.1580986E-002	0.0000000E+000	0.0000000E+000	0.0000000E+000	-6.1580986E-002	9.3041309E+002	8.9938416E+001	-9.484925701371036E-007
1.4678594E+004	1.8445202E+001	-3.5000027E-003	1.8445202E+001	1.0871953E-002	1.524487356975442E+001	2.4985749E-004	-1.8418413E-003	-3.0978992E+003	-1.1154169E-004	1.000000000000000E+000	11	1.0454175E-002	5.6676933E-004	0	-2.728360264979225E-006	5.4214641E-002	-1.0287303E-005	5.4214641E-002	-1.0871953E-002	-1.1154100E-001	5.8783069E+002	5.8783069E+002	-9.0010872E+001	0.0000000E+000	0.0000000E+000	0.0000000E+000	9.0010872E+001	0.0000000E+000	0.0000000E+000	0.0000000E+000	-9.0010872E+001	0.0000000E+000	0.0000000E+000	0.0000000E+000	1.0871953E-002	0.0000000E+000	0.0000000E+000	0.0000000E+000	-1.0871953E-002	5.2700537E+003	8.9989128E+001	2.316216304740614E-007
1.0002226E+004	1.8421755E+001	6.4545865E-003	1.8421757E+001	-2.0075206E-002	1.566687126981560E+001	2.5177628E-004	-1.7500776E-003	2.4652166E+003	3.0264244E-004	1.000000000000000E+000	11	1.0343892E-002	5.6150410E-004	0	-2.582767105810085E-006	5.4283634E-002	1.9019815E-005	5.4283638E-002	2.0075206E-002	3.0260822E-001	8.6375867E+002	8.6375873E+002	-8.9979927E+001	0.0000000E+000	0.0000000E+000	0.0000000E+000	8.9979927E+001	0.0000000E+000	0.0000000E+000	0.0000000E+000	-8.9979927E+001	0.0000000E+000	0.0000000E+000	0.0000000E+000	-2.0075206E-002	0.0000000E+000	0.0000000E+000	0.0000000E+000	2.0075206E-002	2.8540566E+003	8.9979927E+001	1.455931591691400E-007
6.8110674E+003	1.8446093E+001	1.2043077E-002	1.8446096E+001	-3.7407238E-002	1.621292473573703E+001	2.1462944E-004	-2.7744013E-003	1.9402937E+003	8.2705321E-004	1.000000000000000E+000	11	1.0244223E-002	5.5535993E-004	0	-3.799043400808134E-006	5.4212000E-002	3.5393907E-005	5.4212011E-002	3.7407238E-002	8.2704616E-001	1.2667776E+003	1.2667778E+003	-8.9962593E+001	0.0000000E+000	0.0000000E+000	0.0000000E+000	8.9962593E+001	0.0000000E+000	0.0000000E+000	0.0000000E+000	-8.9962593E+001	0.0000000E+000	0.0000000E+000	0.0000000E+000	-3.7407238E-002	0.0000000E+000	0.0000000E+000	0.0000000E+000	3.7407238E-002	1.5316761E+003	8.9962593E+001	-1.216276294998049E-006
4.6414854E+003	1.8457718E+001	1.5517840E-002	1.8457724E+001	-4.8169911E-002	1.690206780853623E+001	2.3976038E-004	-2.6673437E-003	2.2096926E+003	1.5618458E-003	1.000000000000000E+000	11	1.0102014E-002	5.4730551E-004	0	-4.683977412412383E-006	5.4177843E-002	4.5548597E-005	5.4177862E-002	4.8169911E-002	1.5619134E+000	1.8577396E+003	1.8577402E+003	-8.9951828E+001	0.0000000E+000	0.0000000E+000	0.0000000E+000	8.9951828E+001	0.0000000E+000	0.0000000E+000	0.0000000E+000	-8.9951828E+001	0.0000000E+000	0.0000000E+000	0.0000000E+000	-4.8169911E-002	0.0000000E+000	0.0000000E+000	0.0000000E+000	4.8169911E-002	1.1894514E+003	8.9951828E+001	-8.849340116042492E-007
3.1610117E+003	1.8454390E+001	6.9273198E-003	1.8454391E+001	-2.1507412E-002	1.736711063062103E+001	2.4646695E-004	-1.9802339E-003	7.2682319E+003	1.0241411E-003	1.000000000000000E+000	11	1.0773086E-002	5.8376812E-004	0	-4.536675868956889E-006	5.4187641E-002	2.0340694E-005	5.4187644E-002	2.1507412E-002	1.0241339E+000	2.7283132E+003	2.7283135E+003	-8.9978493E+001	0.0000000E+000	0.0000000E+000	0.0000000E+000	8.9978493E+001	0.0000000E+000	0.0000000E+000	0.0000000E+000	-8.9978493E+001	0.0000000E+000	0.0000000E+000	0.0000000E+000	-2.1507412E-002	0.0000000E+000	0.0000000E+000	0.0000000E+000	2.1507412E-002	2.6640015E+003	8.9978493E+001	1.473015434554941E-007
2.1556899E+003	1.8459602E+001	2.4437176E-003	1.8459602E+001	-7.5849253E-003	1.805308106320444E+001	2.4669050E-004	-1.9278236E-003	3.0212232E+004	5.2946853E-004	1.000000000000000E+000	11	1.0191170E-002	5.5207964E-004	0	-4.874599355082157E-006	5.4172348E-002	7.1714394E-006	5.4172348E-002	7.5849253E-003	5.2937734E-001	3.9995535E+003	3.9995535E+003	-8.9992416E+001	0.0000000E+000	0.0000000E+000	0.0000000E+000	8.9992416E+001	0.0000000E+000	0.0000000E+000	0.0000000E+000	-8.9992416E+001	0.0000000E+000	0.0000000E+000	0.0000000E+000	-7.5849253E-003	0.0000000E+000	0.0000000E+000	0.0000000E+000	7.5849253E-003	7.5539019E+003	8.9992416E+001	-3.379234861252682E-007
1.4685898E+003	1.8448433E+001	1.0952690E-002	1.8448437E+001	-3.4016050E-002	1.851934668532340E+001	2.4011434E-004	-2.4817642E-003	9.8946133E+003	3.4875567E-003	1.000000000000000E+000	11	1.0357775E-002	5.6144455E-004	0	-4.755981903959765E-006	5.4205123E-002	3.2181157E-005	5.4205135E-002	3.4016050E-002	3.4879072E+000	5.8743521E+003	5.8743530E+003	-8.9965981E+001	0.0000000E+000	0.0000000E+000	0.0000000E+000	8.9965981E+001	0.0000000E+000	0.0000000E+000	0.0000000E+000	-8.9965981E+001	0.0000000E+000	0.0000000E+000	0.0000000E+000	-3.4016050E-002	0.0000000E+000	0.0000000E+000	0.0000000E+000	3.4016050E-002	1.6843746E+003	8.9965981E+001	1.186174511223928E-007
1.0003202E+003	1.8418894E+001	-3.0542233E-003	1.8418894E+001	9.5007932E-003	1.898307910737640E+001	2.4777101E-004	-2.1135893E-003	-5.2093113E+004	-1.4323685E-003	1.000000000000000E+000	11	1.0426780E-002	5.6609156E-004	0	-5.387531383449742E-006	5.4292075E-002	-9.0027188E-006	5.4292075E-002	-9.5007932E-003	-1.4320374E+000	8.6380869E+003	8.6380869E+003	-9.0009499E+001	0.0000000E+000	0.0000000E+000	0.0000000E+000	9.0009499E+001	0.0000000E+000	0.0000000E+000	0.0000000E+000	-9.0009499E+001	0.0000000E+000	0.0000000E+000	0.0000000E+000	9.5007932E-003	0.0000000E+000	0.0000000E+000	0.0000000E+000	-9.5007932E-003	6.0306313E+003	8.9990501E+001	-6.315494794899775E-007
6.8108978E+002	1.8457277E+001	1.2092184E-002	1.8457281E+001	-3.7537012E-002	1.944782078271965E+001	2.3562468E-004	-2.2890968E-003	1.9324623E+004	8.2944026E-003	1.000000000000000E+000	11	1.0489220E-002	5.6829711E-004	0	-5.421304932533531E-006	5.4179151E-002	3.5495174E-005	5.4179162E-002	3.7537012E-002	8.2943153E+000	1.2660414E+004	1.2660417E+004	-8.9962463E+001	0.0000000E+000	0.0000000E+000	0.0000000E+000	8.9962463E+001	0.0000000E+000	0.0000000E+000	0.0000000E+000	-8.9962463E+001	0.0000000E+000	0.0000000E+000	0.0000000E+000	-3.7537012E-002	0.0000000E+000	0.0000000E+000	0.0000000E+000	3.7537012E-002	1.5263807E+003	8.9962463E+001	-3.377354908378858E-008
4.6396069E+002	1.8450171E+001	3.1329561E-002	1.8450197E+001	-9.7291775E-002	1.991459403157933E+001	2.5540902E-004	-2.5466704E-003	1.0949257E+004	3.1571209E-002	1.000000000000000E+000	11	1.0502758E-002	5.6924904E-004	0	-5.411106122286039E-006	5.4199886E-002	9.2034847E-005	5.4199964E-002	9.7291775E-002	3.1570648E+001	1.8592480E+004	1.8592508E+004	-8.9902710E+001	0.0000000E+000	0.0000000E+000	0.0000000E+000	8.9902710E+001	0.0000000E+000	0.0000000E+000	0.0000000E+000	-8.9902710E+001	0.0000000E+000	0.0000000E+000	0.0000000E+000	-9.7291775E-002	0.0000000E+000	0.0000000E+000	0.0000000E+000	9.7291775E-002	5.8890613E+002	8.9902710E+001	1.019881024749122E-008
3.1631589E+002	1.8439835E+001	2.0610878E-002	1.8439846E+001	-6.4041562E-002	2.037833050696645E+001	2.3091146E-004	-2.1949084E-003	2.4411959E+004	3.0498680E-002	1.000000000000000E+000	11	1.0509223E-002	5.6991924E-004	0	-5.110986361923602E-006	5.4230355E-002	6.0615250E-005	5.4230388E-002	6.4041562E-002	3.0498476E+001	2.7286105E+004	2.7286123E+004	-8.9935959E+001	0.0000000E+000	0.0000000E+000	0.0000000E+000	8.9935959E+001	0.0000000E+000	0.0000000E+000	0.0000000E+000	-8.9935959E+001	0.0000000E+000	0.0000000E+000	0.0000000E+000	-6.4041562E-002	0.0000000E+000	0.0000000E+000	0.0000000E+000	6.4041562E-002	8.9466516E+002	8.9935959E+001	3.001197603624373E-007
2.1534457E+002	1.8428131E+001	4.3314476E-002	1.8428183E+001	-1.3467084E-001	2.084184228896629E+001	2.2813569E-004	-2.7779448E-003	1.7062912E+004	9.4265826E-002	1.000000000000000E+000	11	1.0513806E-002	5.7052862E-004	0	-5.592706872551288E-006	5.4264560E-002	1.2754634E-004	5.4264709E-002	1.3467084E-001	9.4268082E+001	4.0105371E+004	4.0105480E+004	-8.9865326E+001	0.0000000E+000	0.0000000E+000	0.0000000E+000	8.9865326E+001	0.0000000E+000	0.0000000E+000	0.0000000E+000	-8.9865326E+001	0.0000000E+000	0.0000000E+000	0.0000000E+000	-1.3467084E-001	0.0000000E+000	0.0000000E+000	0.0000000E+000	1.3467084E-001	4.2544971E+002	8.9865326E+001	-4.817205106276862E-007
1.4673740E+002	1.8428137E+001	4.4586167E-002	1.8428190E+001	-1.3862467E-001	2.130279372417135E+001	2.4615024E-004	-2.2204611E-003	2.4326475E+004	1.4240134E-001	1.000000000000000E+000	11	1.0521461E-002	5.7094381E-004	0	-5.262925219935520E-006	5.4264527E-002	1.3129094E-004	5.4264687E-002	1.3862467E-001	1.4240282E+002	5.8856629E+004	5.8856801E+004	-8.9861374E+001	0.0000000E+000	0.0000000E+000	0.0000000E+000	8.9861374E+001	0.0000000E+000	0.0000000E+000	0.0000000E+000	-8.9861374E+001	0.0000000E+000	0.0000000E+000	0.0000000E+000	-1.3862467E-001	0.0000000E+000	0.0000000E+000	0.0000000E+000	1.3862467E-001	4.1331512E+002	8.9861374E+001	3.297816526157681E-007
1.0003201E+002	1.8431408E+001	8.3202809E-002	1.8431595E+001	-2.5864208E-001	2.176810339966323E+001	2.3879166E-004	-3.0108981E-003	1.9122434E+004	3.8966671E-001	1.000000000000000E+000	11	1.0519201E-002	5.7071570E-004	0	-5.668963355397056E-006	5.4254115E-002	2.4491319E-004	5.4254666E-002	2.5864208E-001	3.8966974E+002	8.6320461E+004	8.6321344E+004	-8.9741356E+001	0.0000000E+000	0.0000000E+000	0.0000000E+000	8.9741356E+001	0.0000000E+000	0.0000000E+000	0.0000000E+000	-8.9741356E+001	0.0000000E+000	0.0000000E+000	0.0000000E+000	-2.5864208E-001	0.0000000E+000	0.0000000E+000	0.0000000E+000	2.5864208E-001	2.2152386E+002	8.9741356E+001	-4.060381354615355E-007
6.8103981E+001	1.8436111E+001	8.2838923E-002	1.8436298E+001	-2.5744519E-001	2.224470483558252E+001	2.4192140E-004	-1.7146403E-003	2.8210654E+004	5.6955361E-001	1.000000000000000E+000	11	1.0526530E-002	5.7096768E-004	0	-5.871733581369174E-006	5.4240275E-002	2.4371763E-004	5.4240823E-002	2.5744519E-001	5.6955603E+002	1.2675629E+005	1.2675757E+005	-8.9742554E+001	0.0000000E+000	0.0000000E+000	0.0000000E+000	8.9742554E+001	0.0000000E+000	0.0000000E+000	0.0000000E+000	-8.9742554E+001	0.0000000E+000	0.0000000E+000	0.0000000E+000	-2.5744519E-001	0.0000000E+000	0.0000000E+000	0.0000000E+000	2.5744519E-001	2.2255373E+002	8.9742554E+001	-2.027702259721184E-007
4.6441547E+001	1.8413605E+001	1.5538521E-001	1.8414261E+001	-4.8348519E-001	2.269795336376410E+001	2.3422750E-004	-3.3328175E-003	2.2054834E+004	1.5704155E+000	1.000000000000000E+000	11	1.0525456E-002	5.7159265E-004	0	-5.642224759571643E-006	5.4303803E-002	4.5824854E-004	5.4305736E-002	4.8348519E-001	1.5704063E+003	1.8609886E+005	1.8610548E+005	-8.9516518E+001	0.0000000E+000	0.0000000E+000	0.0000000E+000	8.9516518E+001	0.0000000E+000	0.0000000E+000	0.0000000E+000	-8.9516518E+001	0.0000000E+000	0.0000000E+000	0.0000000E+000	-4.8348519E-001	0.0000000E+000	0.0000000E+000	0.0000000E+000	4.8348519E-001	1.1850294E+002	8.9516518E+001	2.295088217975313E-007
3.1629555E+001	1.8416534E+001	1.7053099E-001	1.8417324E+001	-5.3052467E-001	2.314083034481155E+001	2.3076244E-004	-3.5788268E-003	2.9506910E+004	2.5297482E+000	1.000000000000000E+000	11	1.0529769E-002	5.7173171E-004	0	-6.277644208005060E-006	5.4294378E-002	5.0274783E-004	5.4296706E-002	5.3052467E-001	2.5297505E+003	2.7320075E+005	2.7321247E+005	-8.9469475E+001	0.0000000E+000	0.0000000E+000	0.0000000E+000	8.9469475E+001	0.0000000E+000	0.0000000E+000	0.0000000E+000	-8.9469475E+001	0.0000000E+000	0.0000000E+000	0.0000000E+000	-5.3052467E-001	0.0000000E+000	0.0000000E+000	0.0000000E+000	5.3052467E-001	1.0799524E+002	8.9469475E+001	-6.354194484334176E-007
2.1551722E+001	1.8439590E+001	2.4558203E-001	1.8441225E+001	-7.6303118E-001	2.357674087217310E+001	2.2310579E-004	-3.7006191E-003	3.0070563E+004	5.3327985E+000	1.000000000000000E+000	11	1.0530162E-002	5.7101203E-004	0	-5.187083672289090E-006	5.4221522E-002	7.2213274E-004	5.4226331E-002	7.6303118E-001	5.3327979E+003	4.0041459E+005	4.0045009E+005	-8.9236969E+001	0.0000000E+000	0.0000000E+000	0.0000000E+000	8.9236969E+001	0.0000000E+000	0.0000000E+000	0.0000000E+000	-8.9236969E+001	0.0000000E+000	0.0000000E+000	0.0000000E+000	-7.6303118E-001	0.0000000E+000	0.0000000E+000	0.0000000E+000	7.6303118E-001	7.5085258E+001	8.9236969E+001	1.090560535715971E-006
1.4685154E+001	1.8435459E+001	3.1281206E-001	1.8438112E+001	-9.7209901E-001	2.405142393475398E+001	2.4180961E-004	-1.1875574E-003	3.4646402E+004	9.9722281E+000	1.000000000000000E+000	11	1.0526708E-002	5.7092117E-004	0	-5.345838006787946E-006	5.4227684E-002	9.2013297E-004	5.4235488E-002	9.7209901E-001	9.9722305E+003	5.8770938E+005	5.8779400E+005	-8.9027901E+001	0.0000000E+000	0.0000000E+000	0.0000000E+000	8.9027901E+001	0.0000000E+000	0.0000000E+000	0.0000000E+000	-8.9027901E+001	0.0000000E+000	0.0000000E+000	0.0000000E+000	-9.7209901E-001	0.0000000E+000	0.0000000E+000	0.0000000E+000	9.7209901E-001	5.8934616E+001	8.9027901E+001	-1.587543344988565E-007
1.0003201E+001	1.8419147E+001	4.4418609E-001	1.8424503E+001	-1.3814459E+000	2.451511283680156E+001	2.3245769E-004	2.3422253E-004	3.5819223E+004	2.0818743E+001	1.000000000000000E+000	11	1.0530010E-002	5.7152205E-004	0	-9.050640630927067E-006	5.4259770E-002	1.3084989E-003	5.4275546E-002	1.3814459E+000	2.0818756E+004	8.6329463E+005	8.6354563E+005	-8.8618553E+001	0.0000000E+000	0.0000000E+000	0.0000000E+000	8.8618553E+001	0.0000000E+000	0.0000000E+000	0.0000000E+000	-8.8618553E+001	0.0000000E+000	0.0000000E+000	0.0000000E+000	-1.3814459E+000	0.0000000E+000	0.0000000E+000	0.0000000E+000	1.3814459E+000	4.1467186E+001	8.8618553E+001	-3.704802624139121E-006
6.8171902E+000	1.8460129E+001	6.8422472E-001	1.8472805E+001	-2.1226964E+000	2.487082384031964E+001	2.1190957E-004	-3.5349969E-003	3.4120547E+004	4.6810989E+001	1.000000000000000E+000	11	1.0533893E-002	5.7023787E-004	0	-5.554351524078003E-006	5.4096486E-002	2.0050863E-003	5.4133631E-002	2.1226964E+000	4.6810977E+004	1.2629431E+006	1.2638104E+006	-8.7877304E+001	0.0000000E+000	0.0000000E+000	0.0000000E+000	8.7877304E+001	0.0000000E+000	0.0000000E+000	0.0000000E+000	-8.7877304E+001	0.0000000E+000	0.0000000E+000	0.0000000E+000	-2.1226964E+000	0.0000000E+000	0.0000000E+000	0.0000000E+000	2.1226964E+000	2.6979628E+001	8.7877304E+001	3.496289106849064E-006
4.6392517E+000	1.8429413E+001	9.9636841E-001	1.8456327E+001	-3.0946281E+000	2.537073141074507E+001	2.3618356E-004	-6.2037515E-004	3.4431207E+004	1.0034634E+002	1.000000000000000E+000	11	1.0533092E-002	5.7070353E-004	0	-1.315481211259450E-005	5.4102946E-002	2.9250234E-003	5.4181959E-002	3.0946281E+000	1.0034632E+005	1.8560646E+006	1.8587753E+006	-8.6905373E+001	0.0000000E+000	0.0000000E+000	0.0000000E+000	8.6905373E+001	0.0000000E+000	0.0000000E+000	0.0000000E+000	-8.6905373E+001	0.0000000E+000	0.0000000E+000	0.0000000E+000	-3.0946281E+000	0.0000000E+000	0.0000000E+000	0.0000000E+000	3.0946281E+000	1.8496584E+001	8.6905373E+001	-7.600460588516499E-006
3.1603963E+000	1.8443100E+001	1.4752816E+000	1.8502010E+001	-4.5734076E+000	2.607862341770669E+001	2.2765136E-004	-7.9061836E-003	3.4135297E+004	2.1702795E+002	1.000000000000000E+000	11	1.0540188E-002	5.6967803E-004	0	-9.687934441631012E-006	5.3876091E-002	4.3096012E-003	5.4048181E-002	4.5734076E+000	2.1702808E+005	2.7131555E+006	2.7218218E+006	-8.5426590E+001	0.0000000E+000	0.0000000E+000	0.0000000E+000	8.5426590E+001	0.0000000E+000	0.0000000E+000	0.0000000E+000	-8.5426590E+001	0.0000000E+000	0.0000000E+000	0.0000000E+000	-4.5734076E+000	0.0000000E+000	0.0000000E+000	0.0000000E+000	4.5734076E+000	1.2501410E+001	8.5426590E+001	3.466877670963489E-006
2.1557674E+000	1.8409319E+001	2.1203883E+000	1.8531031E+001	-6.5703831E+000	2.709414938595728E+001	2.3751092E-004	-2.9602589E-003	3.4817922E+004	4.5586313E+002	1.000000000000000E+000	11	1.0537562E-002	5.6864414E-004	0	-9.575357398393357E-008	5.3609107E-002	6.1747050E-003	5.3963538E-002	6.5703831E+000	4.5586294E+005	3.9578268E+006	3.9839935E+006	-8.3429619E+001	0.0000000E+000	0.0000000E+000	0.0000000E+000	8.3429619E+001	0.0000000E+000	0.0000000E+000	0.0000000E+000	-8.3429619E+001	0.0000000E+000	0.0000000E+000	0.0000000E+000	-6.5703831E+000	0.0000000E+000	0.0000000E+000	0.0000000E+000	6.5703831E+000	8.6820507E+000	8.3429619E+001	9.592180867647079E-006
1.4663100E+000	1.8523085E+001	3.1342769E+000	1.8786388E+001	-9.6040039E+000	2.856750270922203E+001	2.4696093E-004	3.2151348E-003	3.4630355E+004	9.6392908E+002	1.000000000000000E+000	11	1.0542396E-002	5.6117203E-004	0	2.549304046637391E-006	5.2483976E-002	8.8807726E-003	5.3230029E-002	9.6040039E+000	9.6392913E+005	5.6966700E+006	5.7776475E+006	-8.0395996E+001	0.0000000E+000	0.0000000E+000	0.0000000E+000	8.0395996E+001	0.0000000E+000	0.0000000E+000	0.0000000E+000	-8.0395996E+001	0.0000000E+000	0.0000000E+000	0.0000000E+000	-9.6040039E+000	0.0000000E+000	0.0000000E+000	0.0000000E+000	9.6040039E+000	5.9098430E+000	8.0395996E+001	2.645057620621325E-006
1.0000639E+000	1.8438492E+001	4.6699734E+000	1.9020689E+001	-1.4212608E+001	3.070670091750799E+001	2.4369358E-004	6.4655457E-004	3.4078301E+004	2.0542546E+003	1.000000000000000E+000	11	1.0543505E-002	5.5431772E-004	0	-1.115681385145096E-005	5.0965104E-002	1.2908088E-002	5.2574333E-002	1.4212608E+001	2.0542548E+006	8.1108300E+006	8.3669305E+006	-7.5787392E+001	0.0000000E+000	0.0000000E+000	0.0000000E+000	7.5787392E+001	0.0000000E+000	0.0000000E+000	0.0000000E+000	-7.5787392E+001	0.0000000E+000	0.0000000E+000	0.0000000E+000	-1.4212608E+001	0.0000000E+000	0.0000000E+000	0.0000000E+000	1.4212608E+001	3.9483078E+000	7.5787392E+001	-1.370611789808835E-005
6.8136233E-001	1.8481096E+001	6.6388602E+000	1.9637346E+001	-1.9759525E+001	3.382641709237942E+001	2.4584678E-004	-2.4642020E-003	3.5184266E+004	4.0213318E+003	1.000000000000000E+000	11	1.0542719E-002	5.3687085E-004	0	-3.719441935422300E-005	4.7924999E-002	1.7215827E-002	5.0923377E-002	1.9759525E+001	4.0213318E+006	1.1194487E+007	1.1894858E+007	-7.0240479E+001	0.0000000E+000	0.0000000E+000	0.0000000E+000	7.0240479E+001	0.0000000E+000	0.0000000E+000	0.0000000E+000	-7.0240479E+001	0.0000000E+000	0.0000000E+000	0.0000000E+000	-1.9759525E+001	0.0000000E+000	0.0000000E+000	0.0000000E+000	1.9759525E+001	2.7837756E+000	7.0240479E+001	-2.603760550277204E-005
4.6409056E-001	1.8886478E+001	9.7538481E+000	2.1256449E+001	-2.7313917E+001	3.839097936241888E+001	2.4661433E-004	-2.5699409E-003	3.5159398E+004	7.4030718E+003	1.000000000000000E+000	11	1.0542372E-002	4.9596111E-004	0	-6.075263062776503E-005	4.1799352E-002	2.1587113E-002	4.7044545E-002	2.7313917E+001	7.4030725E+006	1.4334645E+007	1.6133429E+007	-6.2686081E+001	0.0000000E+000	0.0000000E+000	0.0000000E+000	6.2686081E+001	0.0000000E+000	0.0000000E+000	0.0000000E+000	-6.2686081E+001	0.0000000E+000	0.0000000E+000	0.0000000E+000	-2.7313917E+001	0.0000000E+000	0.0000000E+000	0.0000000E+000	2.7313917E+001	1.9363105E+000	6.2686081E+001	-2.355821127354203E-005
3.1619310E-001	1.8814310E+001	1.4390738E+001	2.3686951E+001	-3.7411743E+001	4.507140570649062E+001	2.4535399E-004	-1.9877388E-003	3.4977172E+004	1.2910186E+004	1.000000000000000E+000	11	1.0545442E-002	4.4520048E-004	0	-4.720250196983882E-005	3.3532813E-002	2.5648663E-002	4.2217337E-002	3.7411743E+001	1.2910187E+007	1.6878652E+007	2.1249984E+007	-5.2588257E+001	0.0000000E+000	0.0000000E+000	0.0000000E+000	5.2588257E+001	0.0000000E+000	0.0000000E+000	0.0000000E+000	-5.2588257E+001	0.0000000E+000	0.0000000E+000	0.0000000E+000	-3.7411743E+001	0.0000000E+000	0.0000000E+000	0.0000000E+000	3.7411743E+001	1.3073902E+000	5.2588257E+001	1.355012865792621E-005
2.1526784E-001	1.8972900E+001	2.0499769E+001	2.7932266E+001	-4.7215191E+001	5.486915003853210E+001	2.4035251E-004	-1.9435788E-003	3.6065508E+004	1.9425742E+004	1.000000000000000E+000	11	1.0547437E-002	3.7760762E-004	0	6.034887304791482E-006	2.4317637E-002	2.6274629E-002	3.5800889E-002	4.7215191E+001	1.9425742E+007	1.7978870E+007	2.6468834E+007	-4.2784809E+001	0.0000000E+000	0.0000000E+000	0.0000000E+000	4.2784809E+001	0.0000000E+000	0.0000000E+000	0.0000000E+000	-4.2784809E+001	0.0000000E+000	0.0000000E+000	0.0000000E+000	-4.7215191E+001	0.0000000E+000	0.0000000E+000	0.0000000E+000	4.7215191E+001	9.2551774E-001	4.2784805E+001	5.323738927463030E-005
1.4692880E-001	1.9544842E+001	2.9869293E+001	3.5695595E+001	-5.6801445E+001	6.920478501275647E+001	2.3769053E-004	-1.8857678E-003	3.6265047E+004	2.5392701E+004	1.000000000000000E+000	11	1.0544324E-002	2.9539567E-004	0	5.102472980792016E-005	1.5339207E-002	2.3442056E-002	2.8014662E-002	5.6801445E+001	2.5392700E+007	1.6615603E+007	3.0345798E+007	-3.3198555E+001	0.0000000E+000	0.0000000E+000	0.0000000E+000	3.3198555E+001	0.0000000E+000	0.0000000E+000	0.0000000E+000	-3.3198555E+001	0.0000000E+000	0.0000000E+000	0.0000000E+000	-5.6801445E+001	0.0000000E+000	0.0000000E+000	0.0000000E+000	5.6801445E+001	6.5434563E-001	3.3198547E+001	4.498984250312868E-005
9.9904090E-002	1.9949844E+001	4.3851631E+001	4.8176361E+001	-6.5537331E+001	9.027463140018517E+001	2.3125361E-004	-1.9641556E-003	3.6328809E+004	3.0099180E+004	1.000000000000000E+000	11	1.0544482E-002	2.1887252E-004	0	3.853914589998264E-005	8.5955076E-003	1.8893732E-002	2.0757068E-002	6.5537331E+001	3.0099176E+007	1.3693308E+007	3.3067614E+007	-2.4462669E+001	0.0000000E+000	0.0000000E+000	0.0000000E+000	2.4462669E+001	0.0000000E+000	0.0000000E+000	0.0000000E+000	-2.4462669E+001	0.0000000E+000	0.0000000E+000	0.0000000E+000	-6.5537331E+001	0.0000000E+000	0.0000000E+000	0.0000000E+000	6.5537331E+001	4.5493960E-001	2.4462677E+001	-1.248558390793752E-005